L I	L III	L II(Calc.)
-0.222168	-0.193481	-0.415649
-0.228577	-0.18219	-0.410767
-0.220337	-0.166931	-0.387268
-0.202332	-0.147095	-0.349426
-0.177917	-0.126648	-0.304565
-0.149841	-0.107727	-0.257568
-0.123291	-0.0906372	-0.213928
-0.101624	-0.0744629	-0.176086
-0.0860596	-0.06073	-0.14679
-0.0765991	-0.0491333	-0.125732
-0.0720215	-0.0390625	-0.111084
-0.0695801	-0.0323486	-0.101929
-0.0665283	-0.0305176	-0.0970459
-0.0643921	-0.0314331	-0.0958252
-0.065918	-0.0317383	-0.0976563
-0.0708008	-0.0314331	-0.102234
-0.0753784	-0.0314331	-0.106812
-0.0778198	-0.0323486	-0.110168
-0.0778198	-0.0338745	-0.111694
-0.0762939	-0.03479	-0.111084
-0.072937	-0.0366211	-0.109558
-0.0683594	-0.0384521	-0.106812
-0.0634766	-0.0402832	-0.10376
-0.0579834	-0.0421143	-0.100098
-0.0527954	-0.043335	-0.0961304
-0.0491333	-0.0448608	-0.0939941
-0.0476074	-0.0454712	-0.0930786
-0.0482178	-0.0448608	-0.0930786
-0.0512695	-0.0424194	-0.093689
-0.0540161	-0.0390625	-0.0930786
-0.0552368	-0.0350952	-0.090332
-0.0558472	-0.0320435	-0.0878906
-0.0558472	-0.0302124	-0.0860596
-0.0546265	-0.0299072	-0.0845337
-0.0524902	-0.0296021	-0.0820923
-0.0491333	-0.0289917	-0.078125
-0.0454712	-0.0289917	-0.0744629
-0.0411987	-0.0302124	-0.0714111
-0.0357056	-0.0332642	-0.0689697
-0.0317383	-0.0354004	-0.0671387
-0.0323486	-0.0335693	-0.065918
-0.0360107	-0.0296021	-0.0656128
-0.0402832	-0.0271606	-0.0674438
-0.045166	-0.0259399	-0.071106
-0.0494385	-0.0250244	-0.0744629
-0.0518799	-0.0247192	-0.0765991
-0.0527954	-0.0241089	-0.0769043
-0.0515747	-0.0241089	-0.0756836
-0.0497437	-0.0250244	-0.0747681
-0.0476074	-0.0253296	-0.072937
-0.0439453	-0.0268555	-0.0708008
-0.0384521	-0.0296021	-0.0680542
-0.0335693	-0.0305176	-0.0640869
-0.0289917	-0.0314331	-0.0604248
-0.0234985	-0.0335693	-0.0570679
-0.0177002	-0.0369263	-0.0546265
-0.0125122	-0.0408936	-0.0534058
-0.00946045	-0.043335	-0.0527954
-0.010376	-0.0430298	-0.0534058
-0.0125122	-0.0405884	-0.0531006
-0.012207	-0.0396729	-0.0518799
-0.0100708	-0.0396729	-0.0497437
-0.00823975	-0.0390625	-0.0473022
-0.00762939	-0.0369263	-0.0445557
-0.00640869	-0.0341797	-0.0405884
-0.00244141	-0.0326538	-0.0350952
0.00396729	-0.0320435	-0.0280762
0.0112915	-0.0314331	-0.0201416
0.0186157	-0.0311279	-0.0125122
0.0256348	-0.0311279	-0.00549316
0.0320435	-0.0323486	-0.000305176
0.0390625	-0.0350952	0.00396729
0.0463867	-0.039978	0.00640869
0.0537109	-0.045166	0.00854492
0.0588989	-0.0488281	0.0100708
0.0616455	-0.0500488	0.0115967
0.0631714	-0.0500488	0.0131226
0.0634766	-0.0491333	0.0143433
0.0631714	-0.0473022	0.0158691
0.0634766	-0.0448608	0.0186157
0.0656128	-0.0421143	0.0234985
0.0692749	-0.0387573	0.0305176
0.0741577	-0.0357056	0.0384521
0.0793457	-0.0332642	0.0460815
0.0854492	-0.0317383	0.0537109
0.0924683	-0.0317383	0.06073
0.100098	-0.032959	0.0671387
0.108643	-0.0354004	0.0732422
0.117493	-0.0390625	0.0784302
0.124817	-0.0418091	0.0830078
0.13031	-0.0424194	0.0878906
0.134888	-0.0424194	0.0924683
0.140076	-0.0430298	0.0970459
0.143738	-0.0418091	0.101929
0.144348	-0.0384521	0.105896
0.143738	-0.0341797	0.109558
0.143127	-0.0311279	0.112
0.143127	-0.0289917	0.114136
0.141602	-0.0256348	0.115967
0.138245	-0.0216675	0.116577
0.134888	-0.0183105	0.116577
0.132751	-0.0161743	0.116577
0.131531	-0.0143433	0.117188
0.1297	-0.0115967	0.118103
0.125732	-0.00640869	0.119324
0.120544	0.000610352	0.121155
0.117493	0.00671387	0.124207
0.116882	0.0106812	0.127563
0.115356	0.0149536	0.13031
0.112	0.0198364	0.131836
0.107117	0.0250244	0.132141
0.103149	0.0286865	0.131836
0.0973511	0.0326538	0.130005
0.0875854	0.0375366	0.125122
0.0747681	0.0436401	0.118408
0.06073	0.0497437	0.110474
0.0482178	0.0552368	0.103455
0.0363159	0.0595093	0.0958252
0.0259399	0.0613403	0.0872803
0.017395	0.0601196	0.0775146
0.0106812	0.0564575	0.0671387
0.00427246	0.0518799	0.0561523
-0.00366211	0.0488281	0.045166
-0.00976563	0.0439453	0.0341797
-0.012207	0.0357056	0.0234985
-0.0137329	0.0256348	0.0119019
-0.0161743	0.0164795	0.000305176
-0.0216675	0.010376	-0.0112915
-0.0296021	0.00762939	-0.0219727
-0.038147	0.00701904	-0.0311279
-0.0476074	0.00854492	-0.0390625
-0.0558472	0.0100708	-0.0457764
-0.06073	0.0100708	-0.0506592
-0.0637817	0.0088501	-0.0549316
-0.065918	0.00793457	-0.0579834
-0.0686646	0.00762939	-0.0610352
-0.071106	0.00762939	-0.0634766
-0.0717163	0.00579834	-0.065918
-0.0720215	0.00274658	-0.0692749
-0.0732422	0	-0.0732422
-0.0756836	-0.00183105	-0.0775146
-0.0790405	-0.00274658	-0.0817871
-0.0827026	-0.00274658	-0.0854492
-0.0854492	-0.00274658	-0.0881958
-0.0875854	-0.00305176	-0.0906372
-0.0894165	-0.00366211	-0.0930786
-0.0912476	-0.00427246	-0.09552
-0.0918579	-0.00518799	-0.0970459
-0.0906372	-0.00671387	-0.0973511
-0.088501	-0.00793457	-0.0964355
-0.0881958	-0.00793457	-0.0961304
-0.0897217	-0.00488281	-0.0946045
-0.0912476	-0.000915527	-0.0921631
-0.0915527	0.00152588	-0.0900269
-0.0918579	0.00335693	-0.088501
-0.093689	0.00701904	-0.0866699
-0.0961304	0.0115967	-0.0845337
-0.0982666	0.015564	-0.0827026
-0.0985718	0.0180054	-0.0805664
-0.0985718	0.0189209	-0.0796509
-0.0985718	0.0189209	-0.0796509
-0.0976563	0.017395	-0.0802612
-0.0952148	0.0134277	-0.0817871
-0.0912476	0.00793457	-0.083313
-0.0863647	0.00213623	-0.0842285
-0.0808716	-0.00427246	-0.085144
-0.0756836	-0.00946045	-0.085144
-0.0738525	-0.0112915	-0.085144
-0.0750732	-0.0106812	-0.0857544
-0.0759888	-0.010376	-0.0863647
-0.0741577	-0.0119019	-0.0860596
-0.0708008	-0.0134277	-0.0842285
-0.0698853	-0.0125122	-0.0823975
-0.0720215	-0.0088501	-0.0808716
-0.0750732	-0.00457764	-0.0796509
-0.0775146	-0.000610352	-0.078125
-0.0796509	0.00213623	-0.0775146
-0.0793457	0.00335693	-0.0759888
-0.0775146	0.00396729	-0.0735474
-0.0756836	0.00396729	-0.0717163
-0.0744629	0.00427246	-0.0701904
-0.0735474	0.00457764	-0.0689697
-0.0714111	0.00396729	-0.0674438
-0.0686646	0.00244141	-0.0662231
-0.067749	0.00213623	-0.0656128
-0.067749	0.00244141	-0.0653076
-0.0686646	0.00335693	-0.0653076
-0.0698853	0.00457764	-0.0653076
-0.0708008	0.00518799	-0.0656128
-0.0704956	0.00549316	-0.0650024
-0.0695801	0.00518799	-0.0643921
-0.0701904	0.00610352	-0.0640869
-0.0720215	0.00793457	-0.0640869
-0.0747681	0.00946045	-0.0653076
-0.0759888	0.00976563	-0.0662231
-0.0753784	0.0100708	-0.0653076
-0.0741577	0.0106812	-0.0634766
-0.0726318	0.0112915	-0.0613403
-0.0704956	0.0125122	-0.0579834
-0.0683594	0.0137329	-0.0546265
-0.0668335	0.0158691	-0.0509644
-0.0656128	0.0177002	-0.0479126
-0.0616455	0.0167847	-0.0448608
-0.055542	0.0140381	-0.0415039
-0.0497437	0.0115967	-0.038147
-0.0460815	0.00976563	-0.0363159
-0.0439453	0.00762939	-0.0363159
-0.0430298	0.00396729	-0.0390625
-0.0424194	0	-0.0424194
-0.0408936	-0.00396729	-0.0448608
-0.0387573	-0.00671387	-0.0454712
-0.0378418	-0.00701904	-0.0448608
-0.0393677	-0.00610352	-0.0454712
-0.0418091	-0.00457764	-0.0463867
-0.0442505	-0.00305176	-0.0473022
-0.0457764	-0.0012207	-0.0469971
-0.0473022	0.000610352	-0.0466919
-0.0491333	0.00213623	-0.0469971
-0.0521851	0.00335693	-0.0488281
-0.0564575	0.00366211	-0.0527954
-0.0601196	0.00396729	-0.0561523
-0.0628662	0.00396729	-0.0588989
-0.0643921	0.00305176	-0.0613403
-0.0650024	0.00213623	-0.0628662
-0.0643921	0.0012207	-0.0631714
-0.0631714	0.0012207	-0.0619507
-0.0613403	0.00152588	-0.0598145
-0.0585938	0.0012207	-0.057373
-0.0540161	0	-0.0540161
-0.0485229	-0.00244141	-0.0509644
-0.0439453	-0.00488281	-0.0488281
-0.0445557	-0.00457764	-0.0491333
-0.0494385	-0.000915527	-0.050354
-0.0543213	0.00213623	-0.0521851
-0.0579834	0.00335693	-0.0546265
-0.0601196	0.00335693	-0.0567627
-0.0604248	0.00183105	-0.0585938
-0.0595093	0	-0.0595093
-0.0585938	-0.000305176	-0.0588989
-0.0570679	0.000305176	-0.0567627
-0.055542	0.000305176	-0.0552368
-0.0537109	-0.000915527	-0.0546265
-0.0509644	-0.00366211	-0.0546265
-0.0469971	-0.00793457	-0.0549316
-0.0463867	-0.00946045	-0.0558472
-0.0512695	-0.00640869	-0.0576782
-0.057373	-0.00305176	-0.0604248
-0.0622559	-0.000305176	-0.062561
-0.0665283	0.00244141	-0.0640869
-0.0717163	0.00579834	-0.065918
-0.0753784	0.00854492	-0.0668335
-0.0750732	0.00854492	-0.0665283
-0.071106	0.00640869	-0.0646973
-0.0637817	0.00213623	-0.0616455
-0.0546265	-0.00366211	-0.0582886
-0.0454712	-0.00976563	-0.0552368
-0.0384521	-0.0137329	-0.0521851
-0.0344849	-0.0161743	-0.0506592
-0.0323486	-0.0177002	-0.0500488
-0.0314331	-0.0195313	-0.0509644
-0.0320435	-0.0198364	-0.0518799
-0.0360107	-0.0170898	-0.0531006
-0.0421143	-0.0131226	-0.0552368
-0.0494385	-0.00823975	-0.0576782
-0.0567627	-0.00305176	-0.0598145
-0.0622559	0.000610352	-0.0616455
-0.065918	0.00335693	-0.062561
-0.0680542	0.00488281	-0.0631714
-0.0692749	0.00518799	-0.0640869
-0.0692749	0.00396729	-0.0653076
-0.0674438	0.00183105	-0.0656128
-0.0646973	-0.000305176	-0.0650024
-0.0619507	-0.00244141	-0.0643921
-0.0598145	-0.00427246	-0.0640869
-0.057373	-0.00640869	-0.0637817
-0.0552368	-0.00823975	-0.0634766
-0.0540161	-0.010376	-0.0643921
-0.0534058	-0.0115967	-0.0650024
-0.0543213	-0.0112915	-0.0656128
-0.0543213	-0.0106812	-0.0650024
-0.0527954	-0.0106812	-0.0634766
-0.0506592	-0.0106812	-0.0613403
-0.0473022	-0.0109863	-0.0582886
-0.0424194	-0.0119019	-0.0543213
-0.0369263	-0.0134277	-0.050354
-0.0332642	-0.0131226	-0.0463867
-0.032959	-0.0088501	-0.0418091
-0.0357056	-0.0012207	-0.0369263
-0.0387573	0.00640869	-0.0323486
-0.0411987	0.0134277	-0.027771
-0.0439453	0.020752	-0.0231934
-0.0485229	0.0296021	-0.0189209
-0.0558472	0.0405884	-0.0152588
-0.0622559	0.050354	-0.0119019
-0.0646973	0.0558472	-0.0088501
-0.0622559	0.0570679	-0.00518799
-0.0567627	0.055542	-0.0012207
-0.0497437	0.0521851	0.00244141
-0.0408936	0.0460815	0.00518799
-0.0299072	0.0375366	0.00762939
-0.0186157	0.0283813	0.00976563
-0.0088501	0.0210571	0.012207
0.00152588	0.0146484	0.0161743
0.0131226	0.00793457	0.0210571
0.0241089	0.00244141	0.0265503
0.0338745	0	0.0338745
0.0405884	0.000915527	0.0415039
0.0448608	0.00396729	0.0488281
0.0473022	0.00732422	0.0546265
0.0473022	0.0109863	0.0582886
0.045166	0.0146484	0.0598145
0.0415039	0.0183105	0.0598145
0.0366211	0.0213623	0.0579834
0.0302124	0.0234985	0.0537109
0.022583	0.0234985	0.0460815
0.0140381	0.0216675	0.0357056
0.00701904	0.0177002	0.0247192
0.00335693	0.0112915	0.0146484
0.00183105	0.00396729	0.00579834
0.000305176	-0.00213623	-0.00183105
-0.00213623	-0.00701904	-0.00915527
-0.00335693	-0.0119019	-0.0152588
-0.00488281	-0.0158691	-0.020752
-0.00762939	-0.017395	-0.0250244
-0.0115967	-0.0164795	-0.0280762
-0.017395	-0.0137329	-0.0311279
-0.0250244	-0.0100708	-0.0350952
-0.0323486	-0.00701904	-0.0393677
-0.0378418	-0.00396729	-0.0418091
-0.0445557	-0.000305176	-0.0448608
-0.0524902	0.00366211	-0.0488281
-0.0601196	0.00579834	-0.0543213
-0.0656128	0.00549316	-0.0601196
-0.0665283	0.00213623	-0.0643921
-0.0643921	-0.00396729	-0.0683594
-0.0628662	-0.0100708	-0.072937
-0.0631714	-0.0146484	-0.0778198
-0.0634766	-0.0180054	-0.0814819
-0.0619507	-0.0222778	-0.0842285
-0.0582886	-0.0274658	-0.0857544
-0.0540161	-0.0323486	-0.0863647
-0.0494385	-0.0366211	-0.0860596
-0.0457764	-0.0387573	-0.0845337
-0.0445557	-0.0372314	-0.0817871
-0.0454712	-0.0338745	-0.0793457
-0.0463867	-0.0308228	-0.0772095
-0.0476074	-0.0286865	-0.0762939
-0.0491333	-0.0271606	-0.0762939
-0.0506592	-0.0268555	-0.0775146
-0.0506592	-0.027771	-0.0784302
-0.0494385	-0.0302124	-0.0796509
-0.0485229	-0.032959	-0.0814819
-0.0494385	-0.0350952	-0.0845337
-0.0512695	-0.0372314	-0.088501
-0.0534058	-0.039978	-0.0933838
-0.0564575	-0.0427246	-0.0991821
-0.0622559	-0.0454712	-0.107727
-0.0701904	-0.0485229	-0.118713
-0.078125	-0.0531006	-0.131226
-0.0857544	-0.0585938	-0.144348
-0.0939941	-0.0628662	-0.15686
-0.102234	-0.0631714	-0.165405
-0.107117	-0.0592041	-0.166321
-0.10498	-0.0500488	-0.155029
-0.0921631	-0.0372314	-0.129395
-0.0662231	-0.020752	-0.0869751
-0.0271606	0.00152588	-0.0256348
0.0241089	0.0308228	0.0549316
0.0866699	0.0656128	0.152283
0.158997	0.106506	0.265503
0.240479	0.152893	0.393372
0.329895	0.202332	0.532227
0.422363	0.248718	0.671082
0.509949	0.28656	0.796509
0.586548	0.310669	0.897217
0.647583	0.32074	0.968323
0.689392	0.315552	1.00494
0.708618	0.293884	1.0025
0.701294	0.257263	0.958557
0.666199	0.20752	0.873718
0.603333	0.148621	0.751953
0.514832	0.0848389	0.59967
0.40802	0.0198364	0.427856
0.293274	-0.0436401	0.249634
0.178528	-0.100708	0.0778198
0.0701904	-0.145264	-0.0750732
-0.0262451	-0.175171	-0.201416
-0.105896	-0.191956	-0.297852
-0.166321	-0.197754	-0.364075
-0.205688	-0.195007	-0.400696
-0.222168	-0.188293	-0.410461
-0.217896	-0.180054	-0.397949
-0.200195	-0.169983	-0.370178
-0.176086	-0.15625	-0.332336
-0.151367	-0.138855	-0.290222
-0.128784	-0.12085	-0.249634
-0.110779	-0.103455	-0.214233
-0.0985718	-0.0863647	-0.184937
-0.0912476	-0.071106	-0.162354
-0.0894165	-0.0576782	-0.147095
-0.0906372	-0.0473022	-0.137939
-0.0930786	-0.0390625	-0.132141
-0.0961304	-0.0335693	-0.1297
-0.0997925	-0.0308228	-0.130615
-0.103149	-0.0308228	-0.133972
-0.10376	-0.0341797	-0.137939
-0.101624	-0.0393677	-0.140991
-0.100403	-0.0430298	-0.143433
-0.101013	-0.0445557	-0.145569
-0.102844	-0.0439453	-0.14679
-0.10376	-0.0421143	-0.145874
-0.101624	-0.0402832	-0.141907
-0.0985718	-0.0387573	-0.137329
-0.09552	-0.0375366	-0.133057
-0.0921631	-0.0378418	-0.130005
-0.0891113	-0.038147	-0.127258
-0.0863647	-0.038147	-0.124512
-0.0830078	-0.0393677	-0.122375
-0.0793457	-0.0415039	-0.12085
-0.0759888	-0.043335	-0.119324
-0.0726318	-0.0448608	-0.117493
-0.0698853	-0.0448608	-0.114746
-0.0695801	-0.0430298	-0.11261
-0.0714111	-0.039978	-0.111389
-0.0723267	-0.0369263	-0.109253
-0.071106	-0.0354004	-0.106506
-0.0680542	-0.0354004	-0.103455
-0.0650024	-0.0350952	-0.100098
-0.0628662	-0.0354004	-0.0982666
-0.0595093	-0.0372314	-0.0967407
-0.0537109	-0.0424194	-0.0961304
-0.0466919	-0.0491333	-0.0958252
-0.0402832	-0.0552368	-0.09552
-0.0369263	-0.0576782	-0.0946045
-0.0369263	-0.0567627	-0.093689
-0.0372314	-0.0558472	-0.0930786
-0.0363159	-0.0546265	-0.0909424
-0.0366211	-0.0515747	-0.0881958
-0.038147	-0.0463867	-0.0845337
-0.0396729	-0.0411987	-0.0808716
-0.0396729	-0.0369263	-0.0765991
-0.0384521	-0.0338745	-0.0723267
-0.0375366	-0.0317383	-0.0692749
-0.0357056	-0.0308228	-0.0665283
-0.0317383	-0.032959	-0.0646973
-0.0265503	-0.0363159	-0.0628662
-0.0228882	-0.0390625	-0.0619507
-0.0210571	-0.0408936	-0.0619507
-0.0210571	-0.0421143	-0.0631714
-0.0219727	-0.0424194	-0.0643921
-0.0250244	-0.0405884	-0.0656128
-0.0280762	-0.0387573	-0.0668335
-0.0289917	-0.038147	-0.0671387
-0.0286865	-0.0372314	-0.065918
-0.0274658	-0.0363159	-0.0637817
-0.0241089	-0.0363159	-0.0604248
-0.0177002	-0.0387573	-0.0564575
-0.00793457	-0.0436401	-0.0515747
0.00213623	-0.0482178	-0.0460815
0.00976563	-0.0509644	-0.0411987
0.015564	-0.0512695	-0.0357056
0.0189209	-0.0482178	-0.0292969
0.0213623	-0.0445557	-0.0231934
0.0228882	-0.0402832	-0.017395
0.0238037	-0.0360107	-0.012207
0.0250244	-0.032959	-0.00793457
0.0280762	-0.0317383	-0.00366211
0.0326538	-0.032959	-0.000305176
0.0390625	-0.0354004	0.00366211
0.0466919	-0.0378418	0.0088501
0.0567627	-0.0424194	0.0143433
0.0698853	-0.0494385	0.0204468
0.0830078	-0.057373	0.0256348
0.0939941	-0.0634766	0.0305176
0.102844	-0.0671387	0.0357056
0.109253	-0.0683594	0.0408936
0.112915	-0.0662231	0.0466919
0.113831	-0.0610352	0.0527954
0.113831	-0.0552368	0.0585938
0.114441	-0.0506592	0.0637817
0.116577	-0.0466919	0.0698853
0.116882	-0.0418091	0.0750732
0.116272	-0.0372314	0.0790405
0.116577	-0.0341797	0.0823975
0.118408	-0.0326538	0.0857544
0.121765	-0.0323486	0.0894165
0.126648	-0.0338745	0.0927734
0.130615	-0.03479	0.0958252
0.131226	-0.032959	0.0982666
0.128784	-0.0289917	0.0997925
0.127869	-0.0250244	0.102844
0.128174	-0.0213623	0.106812
0.128174	-0.0180054	0.110168
0.126953	-0.0134277	0.113525
0.122375	-0.00671387	0.115662
0.115662	0.000610352	0.116272
0.108948	0.00732422	0.116272
0.103455	0.0128174	0.116272
0.0973511	0.0180054	0.115356
0.0894165	0.022583	0.112
0.0802612	0.0259399	0.106201
0.0726318	0.0274658	0.100098
0.0653076	0.0289917	0.0942993
0.0546265	0.0338745	0.088501
0.0411987	0.0405884	0.0817871
0.0305176	0.0442505	0.0747681
0.0216675	0.0463867	0.0680542
0.0131226	0.0485229	0.0616455
0.00427246	0.050354	0.0546265
-0.00427246	0.0518799	0.0476074
-0.0134277	0.0518799	0.0384521
-0.0204468	0.0485229	0.0280762
-0.0256348	0.0436401	0.0180054
-0.0296021	0.0375366	0.00793457
-0.032959	0.0311279	-0.00183105
-0.0350952	0.0241089	-0.0109863
-0.0354004	0.0161743	-0.0192261
-0.0338745	0.00793457	-0.0259399
-0.0317383	0	-0.0317383
-0.0302124	-0.00640869	-0.0366211
-0.0305176	-0.010376	-0.0408936
-0.03479	-0.0109863	-0.0457764
-0.0430298	-0.00823975	-0.0512695
-0.0521851	-0.00518799	-0.057373
-0.0601196	-0.00366211	-0.0637817
-0.0680542	-0.00274658	-0.0708008
-0.0787354	0.000610352	-0.078125
-0.090332	0.00549316	-0.0848389
-0.100098	0.00854492	-0.0915527
-0.106812	0.0100708	-0.0967407
-0.110474	0.0100708	-0.100403
-0.110168	0.0088501	-0.101318
-0.106506	0.00549316	-0.101013
-0.101318	0.00152588	-0.0997925
-0.0961304	-0.00183105	-0.0979614
-0.0915527	-0.00518799	-0.0967407
-0.0857544	-0.00976563	-0.09552
-0.0796509	-0.0149536	-0.0946045
-0.0765991	-0.0180054	-0.0946045
-0.0747681	-0.0198364	-0.0946045
-0.0726318	-0.0219727	-0.0946045
-0.0744629	-0.0201416	-0.0946045
-0.0814819	-0.0131226	-0.0946045
-0.0888062	-0.00610352	-0.0949097
-0.0930786	-0.000915527	-0.0939941
-0.0967407	0.00427246	-0.0924683
-0.101013	0.0106812	-0.090332
-0.106506	0.0183105	-0.0881958
-0.112305	0.0256348	-0.0866699
-0.113525	0.0286865	-0.0848389
-0.109863	0.0268555	-0.0830078
-0.103149	0.0222778	-0.0808716
-0.0946045	0.0161743	-0.0784302
-0.0869751	0.0100708	-0.0769043
-0.0799561	0.00457764	-0.0753784
-0.0732422	-0.000610352	-0.0738525
-0.0671387	-0.00518799	-0.0723267
-0.0619507	-0.00915527	-0.071106
-0.0588989	-0.0115967	-0.0704956
-0.0592041	-0.0112915	-0.0704956
-0.0619507	-0.00823975	-0.0701904
-0.065918	-0.00396729	-0.0698853
-0.0692749	-0.000915527	-0.0701904
-0.0717163	0.000610352	-0.071106
-0.0741577	0.000915527	-0.0732422
-0.0753784	0.000610352	-0.0747681
-0.0750732	-0.000305176	-0.0753784
-0.0732422	-0.00213623	-0.0753784
-0.0698853	-0.00457764	-0.0744629
-0.0668335	-0.00640869	-0.0732422
-0.0650024	-0.00701904	-0.0720215
-0.0616455	-0.00823975	-0.0698853
-0.055542	-0.0115967	-0.0671387
-0.0485229	-0.0158691	-0.0643921
-0.0439453	-0.017395	-0.0613403
-0.0439453	-0.0146484	-0.0585938
-0.0476074	-0.00915527	-0.0567627
-0.0518799	-0.00335693	-0.0552368
-0.0549316	0.000305176	-0.0546265
-0.0558472	0.00213623	-0.0537109
-0.0546265	0.00335693	-0.0512695
-0.0543213	0.00640869	-0.0479126
-0.0558472	0.0109863	-0.0448608
-0.057373	0.015564	-0.0418091
-0.0582886	0.0180054	-0.0402832
-0.0564575	0.0180054	-0.0384521
-0.0518799	0.0149536	-0.0369263
-0.0463867	0.010376	-0.0360107
-0.0415039	0.00579834	-0.0357056
-0.0387573	0.00213623	-0.0366211
-0.0375366	-0.000915527	-0.0384521
-0.0384521	-0.00305176	-0.0415039
-0.0402832	-0.00488281	-0.045166
-0.0418091	-0.00701904	-0.0488281
-0.0445557	-0.00701904	-0.0515747
-0.0476074	-0.00427246	-0.0518799
-0.0497437	-0.0012207	-0.0509644
-0.0524902	0.00244141	-0.0500488
-0.0558472	0.00610352	-0.0497437
-0.0579834	0.00854492	-0.0494385
-0.057373	0.00854492	-0.0488281
-0.0543213	0.00671387	-0.0476074
-0.0497437	0.00335693	-0.0463867
-0.0445557	-0.00152588	-0.0460815
-0.0402832	-0.00701904	-0.0473022
-0.0378418	-0.012207	-0.0500488
-0.0366211	-0.0167847	-0.0534058
-0.0372314	-0.0204468	-0.0576782
-0.0393677	-0.0216675	-0.0610352
-0.0421143	-0.0219727	-0.0640869
-0.0445557	-0.0216675	-0.0662231
-0.0466919	-0.020752	-0.0674438
-0.0500488	-0.0186157	-0.0686646
-0.0546265	-0.0152588	-0.0698853
-0.0585938	-0.0112915	-0.0698853
-0.0595093	-0.0088501	-0.0683594
-0.057373	-0.0088501	-0.0662231
-0.0540161	-0.00823975	-0.0622559
-0.0521851	-0.00732422	-0.0595093
-0.0512695	-0.00701904	-0.0582886
-0.0518799	-0.00610352	-0.0579834
-0.0543213	-0.00305176	-0.057373
-0.0567627	-0.000915527	-0.0576782
-0.057373	-0.000610352	-0.0579834
-0.0570679	-0.00213623	-0.0592041
-0.0549316	-0.00518799	-0.0601196
-0.0506592	-0.00946045	-0.0601196
-0.0448608	-0.0149536	-0.0598145
-0.0402832	-0.0198364	-0.0601196
-0.039978	-0.0210571	-0.0610352
-0.0424194	-0.0198364	-0.0622559
-0.0436401	-0.0192261	-0.0628662
-0.0436401	-0.017395	-0.0610352
-0.045166	-0.0143433	-0.0595093
-0.0491333	-0.00976563	-0.0588989
-0.055542	-0.00427246	-0.0598145
-0.0616455	0.000915527	-0.06073
-0.0665283	0.00427246	-0.0622559
-0.0674438	0.00488281	-0.062561
-0.0643921	0.00213623	-0.0622559
-0.0595093	-0.00244141	-0.0619507
-0.0552368	-0.00640869	-0.0616455
-0.0512695	-0.00976563	-0.0610352
-0.0482178	-0.0128174	-0.0610352
-0.0460815	-0.0149536	-0.0610352
-0.045166	-0.015564	-0.06073
-0.0457764	-0.0149536	-0.06073
-0.0476074	-0.0131226	-0.06073
-0.0509644	-0.0109863	-0.0619507
-0.0546265	-0.00915527	-0.0637817
-0.0567627	-0.00854492	-0.0653076
-0.057373	-0.00915527	-0.0665283
-0.0585938	-0.00976563	-0.0683594
-0.0601196	-0.0106812	-0.0708008
-0.0610352	-0.0115967	-0.0726318
-0.0613403	-0.0125122	-0.0738525
-0.0622559	-0.012207	-0.0744629
-0.0628662	-0.0112915	-0.0741577
-0.0631714	-0.00976563	-0.072937
-0.0637817	-0.00793457	-0.0717163
-0.0637817	-0.00610352	-0.0698853
-0.0622559	-0.00518799	-0.0674438
-0.0601196	-0.00488281	-0.0650024
-0.0576782	-0.00549316	-0.0631714
-0.0549316	-0.00610352	-0.0610352
-0.0515747	-0.00671387	-0.0582886
-0.0488281	-0.00671387	-0.055542
-0.0463867	-0.00732422	-0.0537109
-0.0430298	-0.00915527	-0.0521851
-0.039978	-0.00946045	-0.0494385
-0.0378418	-0.00793457	-0.0457764
-0.0369263	-0.00427246	-0.0411987
-0.0390625	0.00305176	-0.0360107
-0.0418091	0.0106812	-0.0311279
-0.0430298	0.017395	-0.0256348
-0.0427246	0.0234985	-0.0192261
-0.0424194	0.0299072	-0.0125122
-0.0427246	0.0363159	-0.00640869
-0.0427246	0.0427246	0
-0.0405884	0.0460815	0.00549316
-0.0369263	0.0469971	0.0100708
-0.0332642	0.0466919	0.0134277
-0.0286865	0.0442505	0.015564
-0.0234985	0.0393677	0.0158691
-0.0183105	0.0341797	0.0158691
-0.0125122	0.0296021	0.0170898
-0.00549316	0.0250244	0.0195313
0.00335693	0.0195313	0.0228882
0.0134277	0.0137329	0.0271606
0.0244141	0.00793457	0.0323486
0.03479	0.00274658	0.0375366
0.0427246	0.000305176	0.0430298
0.0476074	0.000610352	0.0482178
0.0518799	0.000915527	0.0527954
0.0570679	-0.000305176	0.0567627
0.0616455	-0.00366211	0.0579834
0.062561	-0.00640869	0.0561523
0.0570679	-0.00610352	0.0509644
0.0466919	-0.00305176	0.0436401
0.0357056	-0.000305176	0.0354004
0.0259399	0	0.0259399
0.0167847	-0.0012207	0.015564
0.00854492	-0.00305176	0.00549316
0.000610352	-0.00549316	-0.00488281
-0.00671387	-0.00732422	-0.0140381
-0.0134277	-0.00854492	-0.0219727
-0.0192261	-0.00946045	-0.0286865
-0.0238037	-0.0106812	-0.0344849
-0.0286865	-0.0115967	-0.0402832
-0.0344849	-0.0119019	-0.0463867
-0.0411987	-0.0109863	-0.0521851
-0.0491333	-0.00915527	-0.0582886
-0.0558472	-0.00701904	-0.0628662
-0.0604248	-0.00549316	-0.065918
-0.0631714	-0.00457764	-0.067749
-0.0665283	-0.00305176	-0.0695801
-0.0695801	-0.00274658	-0.0723267
-0.0717163	-0.00366211	-0.0753784
-0.0717163	-0.00640869	-0.078125
-0.0689697	-0.0109863	-0.0799561
-0.0646973	-0.0164795	-0.0811768
-0.0610352	-0.0222778	-0.083313
-0.0604248	-0.0256348	-0.0860596
-0.062561	-0.0271606	-0.0897217
-0.0643921	-0.0289917	-0.0933838
-0.0650024	-0.0314331	-0.0964355
-0.0637817	-0.0338745	-0.0976563
-0.0619507	-0.0357056	-0.0976563
-0.06073	-0.0357056	-0.0964355
-0.0622559	-0.0323486	-0.0946045
-0.0634766	-0.0286865	-0.0921631
-0.0619507	-0.0265503	-0.088501
-0.0588989	-0.0256348	-0.0845337
-0.055542	-0.0259399	-0.0814819
-0.0527954	-0.0259399	-0.0787354
-0.0527954	-0.0247192	-0.0775146
-0.0534058	-0.0231934	-0.0765991
-0.0546265	-0.022583	-0.0772095
-0.0567627	-0.0241089	-0.0808716
-0.0604248	-0.0268555	-0.0872803
-0.0646973	-0.0323486	-0.0970459
-0.0683594	-0.0411987	-0.109558
-0.0717163	-0.0521851	-0.123901
-0.0741577	-0.0650024	-0.13916
-0.0753784	-0.0762939	-0.151672
-0.0747681	-0.0823975	-0.157166
-0.0695801	-0.0827026	-0.152283
-0.0595093	-0.0762939	-0.135803
-0.0418091	-0.0619507	-0.10376
-0.0146484	-0.038147	-0.0527954
0.0238037	-0.00427246	0.0195313
0.0738525	0.0369263	0.110779
0.135498	0.0845337	0.220032
0.206604	0.138245	0.344849
0.28656	0.197449	0.484009
0.373535	0.255737	0.629272
0.461426	0.305481	0.766907
0.543518	0.340881	0.884399
0.614319	0.361023	0.975342
0.667725	0.366821	1.03455
0.699463	0.355225	1.05469
0.706177	0.325317	1.03149
0.686035	0.278015	0.96405
0.637817	0.218506	0.856323
0.561523	0.152283	0.713806
0.46051	0.085144	0.545654
0.345154	0.0189209	0.364075
0.22583	-0.0424194	0.183411
0.109558	-0.0939941	0.015564
0.00335693	-0.131531	-0.128174
-0.0860596	-0.155334	-0.241394
-0.155945	-0.166931	-0.322876
-0.203857	-0.169067	-0.372925
-0.228577	-0.165405	-0.393982
-0.233459	-0.155945	-0.389404
-0.222168	-0.142822	-0.36499
-0.198975	-0.129089	-0.328064
-0.170593	-0.114441	-0.285034
-0.140381	-0.101318	-0.241699
-0.113525	-0.090332	-0.203857
-0.0946045	-0.0787354	-0.17334
-0.0848389	-0.0646973	-0.149536
-0.0827026	-0.0497437	-0.132446
-0.0827026	-0.0372314	-0.119934
-0.083313	-0.0283813	-0.111694
-0.085144	-0.0210571	-0.106201
-0.088501	-0.0143433	-0.102844
-0.0921631	-0.0088501	-0.101013
-0.0946045	-0.00610352	-0.100708
-0.0942993	-0.00610352	-0.100403
-0.0918579	-0.00732422	-0.0991821
-0.088501	-0.00976563	-0.0982666
-0.0839233	-0.012207	-0.0961304
-0.0790405	-0.0143433	-0.0933838
-0.0747681	-0.0149536	-0.0897217
-0.0714111	-0.0146484	-0.0860596
-0.0674438	-0.015564	-0.0830078
-0.0628662	-0.017395	-0.0802612
-0.0582886	-0.0198364	-0.078125
-0.0549316	-0.020752	-0.0756836
-0.0531006	-0.0201416	-0.0732422
-0.0518799	-0.0192261	-0.071106
-0.0524902	-0.0183105	-0.0708008
-0.0564575	-0.0161743	-0.0726318
-0.0619507	-0.0134277	-0.0753784
-0.0680542	-0.00915527	-0.0772095
-0.0735474	-0.00457764	-0.078125
-0.0775146	-0.000610352	-0.078125
-0.0802612	0.00244141	-0.0778198
-0.0814819	0.00427246	-0.0772095
-0.0799561	0.00488281	-0.0750732
-0.0759888	0.00488281	-0.071106
-0.0701904	0.00335693	-0.0668335
-0.0640869	0	-0.0640869
-0.057373	-0.00427246	-0.0616455
-0.0500488	-0.00854492	-0.0585938
-0.0418091	-0.0128174	-0.0546265
-0.0335693	-0.017395	-0.0509644
-0.0274658	-0.0210571	-0.0485229
-0.0262451	-0.0213623	-0.0476074
-0.0283813	-0.0189209	-0.0473022
-0.0305176	-0.0170898	-0.0476074
-0.0286865	-0.017395	-0.0460815
-0.0253296	-0.0189209	-0.0442505
-0.0238037	-0.0186157	-0.0424194
-0.0253296	-0.0158691	-0.0411987
-0.0274658	-0.0131226	-0.0405884
-0.0280762	-0.0125122	-0.0405884
-0.0268555	-0.0137329	-0.0405884
-0.0244141	-0.0152588	-0.0396729
-0.020752	-0.0161743	-0.0369263
-0.0177002	-0.0161743	-0.0338745
-0.0143433	-0.015564	-0.0299072
-0.00976563	-0.0158691	-0.0256348
-0.00335693	-0.0195313	-0.0228882
0.00274658	-0.0234985	-0.020752
0.00549316	-0.0244141	-0.0189209
0.00793457	-0.0241089	-0.0161743
0.012207	-0.0247192	-0.0125122
0.0164795	-0.0253296	-0.0088501
0.0192261	-0.0253296	-0.00610352
0.020752	-0.0253296	-0.00457764
0.0216675	-0.0247192	-0.00305176
0.0222778	-0.0231934	-0.000915527
0.0228882	-0.0213623	0.00152588
0.0238037	-0.0192261	0.00457764
0.0250244	-0.0177002	0.00732422
0.0271606	-0.017395	0.00976563
0.0308228	-0.0189209	0.0119019
0.0363159	-0.0222778	0.0140381
0.0418091	-0.0253296	0.0164795
0.0463867	-0.0265503	0.0198364
0.0500488	-0.0259399	0.0241089
0.0552368	-0.0262451	0.0289917
0.0622559	-0.0280762	0.0341797
0.0695801	-0.0299072	0.0396729
0.0762939	-0.0302124	0.0460815
0.0848389	-0.0311279	0.0537109
0.0942993	-0.032959	0.0613403
0.10376	-0.0354004	0.0683594
0.112	-0.0366211	0.0753784
0.117188	-0.0363159	0.0808716
0.120544	-0.0344849	0.0860596
0.124207	-0.0320435	0.0921631
0.129089	-0.0305176	0.0985718
0.132446	-0.0292969	0.103149
0.132141	-0.0268555	0.105286
0.127563	-0.0219727	0.105591
0.12146	-0.0149536	0.106506
0.117798	-0.00915527	0.108643
0.117493	-0.00549316	0.112
0.118408	-0.00396729	0.114441
0.118713	-0.00274658	0.115967
0.119019	-0.00244141	0.116577
0.119324	-0.00305176	0.116272
0.120239	-0.00366211	0.116577
0.120239	-0.00274658	0.117493
0.119324	-0.000610352	0.118713
0.118103	0.00213623	0.120239
0.115356	0.00610352	0.12146
0.111389	0.0112915	0.122681
0.106201	0.0170898	0.123291
0.100098	0.0219727	0.12207
0.0949097	0.0262451	0.121155
0.0900269	0.0302124	0.120239
0.0854492	0.0344849	0.119934
0.0802612	0.0387573	0.119019
0.0756836	0.0408936	0.116577
0.0714111	0.039978	0.111389
0.0646973	0.0390625	0.10376
0.0540161	0.0393677	0.0933838
0.0421143	0.0402832	0.0823975
0.0299072	0.0411987	0.071106
0.0183105	0.0415039	0.0598145
0.00823975	0.0396729	0.0479126
-0.00274658	0.0384521	0.0357056
-0.0146484	0.0396729	0.0250244
-0.0259399	0.0418091	0.0158691
-0.0363159	0.0445557	0.00823975
-0.0457764	0.0460815	0.000305176
-0.0537109	0.0454712	-0.00823975
-0.0598145	0.0436401	-0.0161743
-0.0656128	0.0430298	-0.022583
-0.0701904	0.0436401	-0.0265503
-0.0744629	0.0442505	-0.0302124
-0.0772095	0.043335	-0.0338745
-0.078125	0.0396729	-0.0384521
-0.078125	0.0341797	-0.0439453
-0.0784302	0.0286865	-0.0497437
-0.078125	0.0231934	-0.0549316
-0.0762939	0.017395	-0.0588989
-0.0744629	0.012207	-0.0622559
-0.0747681	0.00915527	-0.0656128
-0.0759888	0.00701904	-0.0689697
-0.0784302	0.00549316	-0.072937
-0.0820923	0.00579834	-0.0762939
-0.0869751	0.00762939	-0.0793457
-0.0912476	0.010376	-0.0808716
-0.0942993	0.0134277	-0.0808716
-0.0961304	0.0158691	-0.0802612
-0.0961304	0.017395	-0.0787354
-0.0952148	0.0170898	-0.078125
-0.0930786	0.015564	-0.0775146
-0.0906372	0.0131226	-0.0775146
-0.0897217	0.0112915	-0.0784302
-0.0900269	0.00946045	-0.0805664
-0.0888062	0.00671387	-0.0820923
-0.0869751	0.00366211	-0.083313
-0.085144	0.00152588	-0.0836182
-0.0842285	0.000915527	-0.083313
-0.0848389	0.00152588	-0.083313
-0.085144	0.00305176	-0.0820923
-0.0845337	0.00518799	-0.0793457
-0.0827026	0.00610352	-0.0765991
-0.0799561	0.00671387	-0.0732422
-0.0787354	0.00854492	-0.0701904
-0.0778198	0.0106812	-0.0671387
-0.0772095	0.0125122	-0.0646973
-0.0775146	0.0137329	-0.0637817
-0.0787354	0.0143433	-0.0643921
-0.0802612	0.0149536	-0.0653076
-0.0820923	0.0149536	-0.0671387
-0.0830078	0.0143433	-0.0686646
-0.083313	0.0137329	-0.0695801
-0.083313	0.0140381	-0.0692749
-0.083313	0.0140381	-0.0692749
-0.0820923	0.0134277	-0.0686646
-0.0799561	0.0125122	-0.0674438
-0.0765991	0.0119019	-0.0646973
-0.0738525	0.0134277	-0.0604248
-0.0747681	0.0186157	-0.0561523
-0.0765991	0.0241089	-0.0524902
-0.0762939	0.0268555	-0.0494385
-0.0741577	0.0265503	-0.0476074
-0.0698853	0.0234985	-0.0463867
-0.0637817	0.0180054	-0.0457764
-0.0579834	0.0128174	-0.045166
-0.0531006	0.00793457	-0.045166
-0.0488281	0.00305176	-0.0457764
-0.0448608	-0.00152588	-0.0463867
-0.0436401	-0.00366211	-0.0473022
-0.0463867	-0.00274658	-0.0491333
-0.0494385	-0.000610352	-0.0500488
-0.0509644	0.00152588	-0.0494385
-0.0537109	0.00518799	-0.0485229
-0.0588989	0.0112915	-0.0476074
-0.065918	0.0198364	-0.0460815
-0.0726318	0.0286865	-0.0439453
-0.0762939	0.03479	-0.0415039
-0.0744629	0.0363159	-0.038147
-0.0686646	0.0338745	-0.03479
-0.0619507	0.0302124	-0.0317383
-0.0552368	0.0268555	-0.0283813
-0.0482178	0.0241089	-0.0241089
-0.0421143	0.020752	-0.0213623
-0.0375366	0.0177002	-0.0198364
-0.0335693	0.0143433	-0.0192261
-0.0292969	0.0109863	-0.0183105
-0.0250244	0.00732422	-0.0177002
-0.0216675	0.00488281	-0.0167847
-0.0198364	0.00396729	-0.0158691
-0.0204468	0.00488281	-0.015564
-0.022583	0.00640869	-0.0161743
-0.0250244	0.0088501	-0.0161743
-0.0296021	0.0125122	-0.0170898
-0.0341797	0.0167847	-0.017395
-0.0378418	0.0204468	-0.017395
-0.0411987	0.0244141	-0.0167847
-0.045166	0.0274658	-0.0177002
-0.0491333	0.0286865	-0.0204468
-0.0524902	0.0286865	-0.0238037
-0.0549316	0.027771	-0.0271606
-0.0561523	0.0262451	-0.0299072
-0.0570679	0.0247192	-0.0323486
-0.0588989	0.0244141	-0.0344849
-0.0598145	0.0234985	-0.0363159
-0.0582886	0.020752	-0.0375366
-0.055542	0.0177002	-0.0378418
-0.0540161	0.0158691	-0.038147
-0.0543213	0.0161743	-0.038147
-0.055542	0.0164795	-0.0390625
-0.0564575	0.0161743	-0.0402832
-0.0561523	0.0158691	-0.0402832
-0.0537109	0.0146484	-0.0390625
-0.050354	0.0131226	-0.0372314
-0.0482178	0.0115967	-0.0366211
-0.0463867	0.00946045	-0.0369263
-0.0415039	0.00579834	-0.0357056
-0.0366211	0.00213623	-0.0344849
-0.0317383	-0.000610352	-0.0323486
-0.0274658	-0.00274658	-0.0302124
-0.0265503	-0.00213623	-0.0286865
-0.0286865	0.000610352	-0.0280762
-0.0305176	0.00244141	-0.0280762
-0.0317383	0.00305176	-0.0286865
-0.0341797	0.00488281	-0.0292969
-0.0384521	0.00854492	-0.0299072
-0.0427246	0.0119019	-0.0308228
-0.045166	0.0128174	-0.0323486
-0.0460815	0.0128174	-0.0332642
-0.0476074	0.0134277	-0.0341797
-0.0482178	0.0137329	-0.0344849
-0.0466919	0.0128174	-0.0338745
-0.0439453	0.0112915	-0.0326538
-0.0418091	0.0100708	-0.0317383
-0.0405884	0.00976563	-0.0308228
-0.0408936	0.010376	-0.0305176
-0.0418091	0.012207	-0.0296021
-0.0445557	0.0143433	-0.0302124
-0.0469971	0.0152588	-0.0317383
-0.0482178	0.015564	-0.0326538
-0.0485229	0.0140381	-0.0344849
-0.0491333	0.0119019	-0.0372314
-0.0518799	0.0100708	-0.0418091
-0.055542	0.0088501	-0.0466919
-0.0585938	0.00762939	-0.0509644
-0.0598145	0.00640869	-0.0534058
-0.0604248	0.00579834	-0.0546265
-0.0601196	0.00549316	-0.0546265
-0.057373	0.00396729	-0.0534058
-0.0524902	0.00213623	-0.050354
-0.0488281	0.00183105	-0.0469971
-0.0473022	0.00396729	-0.043335
-0.0457764	0.00640869	-0.0393677
-0.0442505	0.00854492	-0.0357056
-0.0430298	0.0100708	-0.032959
-0.0424194	0.0115967	-0.0308228
-0.043335	0.0128174	-0.0305176
-0.0448608	0.0137329	-0.0311279
-0.0463867	0.0140381	-0.0323486
-0.0466919	0.0125122	-0.0341797
-0.045166	0.00823975	-0.0369263
-0.0427246	0.00335693	-0.0393677
-0.0411987	-0.000610352	-0.0418091
-0.0405884	-0.00305176	-0.0436401
-0.0384521	-0.00640869	-0.0448608
-0.0341797	-0.0112915	-0.0454712
-0.0305176	-0.0149536	-0.0454712
-0.0308228	-0.0146484	-0.0454712
-0.0350952	-0.00976563	-0.0448608
-0.0408936	-0.00305176	-0.0439453
-0.0445557	0.00183105	-0.0427246
-0.0460815	0.00579834	-0.0402832
-0.0466919	0.00976563	-0.0369263
-0.0469971	0.0140381	-0.032959
-0.0469971	0.0180054	-0.0289917
-0.045166	0.0204468	-0.0247192
-0.0402832	0.0210571	-0.0192261
-0.0338745	0.0213623	-0.0125122
-0.0274658	0.0231934	-0.00427246
-0.020752	0.0256348	0.00488281
-0.0134277	0.027771	0.0143433
-0.00732422	0.0308228	0.0234985
-0.00396729	0.0350952	0.0311279
-0.00335693	0.0393677	0.0360107
-0.00366211	0.0436401	0.039978
-0.00457764	0.0469971	0.0424194
-0.00549316	0.0491333	0.0436401
-0.00518799	0.0488281	0.0436401
-0.00396729	0.0463867	0.0424194
-0.000915527	0.0424194	0.0415039
0.00427246	0.0375366	0.0418091
0.0109863	0.032959	0.0439453
0.0189209	0.027771	0.0466919
0.027771	0.0222778	0.0500488
0.0369263	0.0177002	0.0546265
0.0457764	0.0146484	0.0604248
0.0543213	0.0119019	0.0662231
0.0616455	0.0088501	0.0704956
0.0640869	0.0088501	0.072937
0.0585938	0.0140381	0.0726318
0.0454712	0.0228882	0.0683594
0.0311279	0.0302124	0.0613403
0.0228882	0.0299072	0.0527954
0.0183105	0.0244141	0.0427246
0.0140381	0.0186157	0.0326538
0.00915527	0.0143433	0.0234985
0.00457764	0.00976563	0.0143433
0.000915527	0.00396729	0.00488281
0	-0.00366211	-0.00366211
0.00213623	-0.0125122	-0.010376
0.00488281	-0.0204468	-0.015564
0.00732422	-0.0271606	-0.0198364
0.00854492	-0.0311279	-0.022583
0.00732422	-0.0314331	-0.0241089
0.000915527	-0.0268555	-0.0259399
-0.0100708	-0.0180054	-0.0280762
-0.022583	-0.00854492	-0.0311279
-0.0338745	-0.000610352	-0.0344849
-0.043335	0.00488281	-0.0384521
-0.0506592	0.0088501	-0.0418091
-0.0558472	0.0106812	-0.045166
-0.0588989	0.010376	-0.0485229
-0.0592041	0.00640869	-0.0527954
-0.0567627	0.000305176	-0.0564575
-0.0540161	-0.00610352	-0.0601196
-0.050354	-0.012207	-0.062561
-0.0457764	-0.0177002	-0.0634766
-0.0421143	-0.0222778	-0.0643921
-0.0387573	-0.0259399	-0.0646973
-0.0366211	-0.0271606	-0.0637817
-0.0384521	-0.0250244	-0.0634766
-0.0421143	-0.0204468	-0.062561
-0.0457764	-0.0158691	-0.0616455
-0.0494385	-0.0115967	-0.0610352
-0.0540161	-0.00732422	-0.0613403
-0.0595093	-0.00274658	-0.0622559
-0.0637817	0	-0.0637817
-0.0656128	0.000305176	-0.0653076
-0.065918	-0.000915527	-0.0668335
-0.0668335	-0.00274658	-0.0695801
-0.0689697	-0.00610352	-0.0750732
-0.0708008	-0.012207	-0.0830078
-0.0717163	-0.0222778	-0.0939941
-0.0732422	-0.0338745	-0.107117
-0.0799561	-0.0418091	-0.121765
-0.088501	-0.0466919	-0.135193
-0.0939941	-0.0491333	-0.143127
-0.0942993	-0.0485229	-0.142822
-0.0875854	-0.0427246	-0.13031
-0.0717163	-0.0299072	-0.101624
-0.0442505	-0.00976563	-0.0540161
-0.00305176	0.017395	0.0143433
0.0512695	0.0509644	0.102234
0.118713	0.0897217	0.208435
0.19989	0.131836	0.331726
0.294189	0.177307	0.471497
0.395203	0.223999	0.619202
0.494385	0.267029	0.761414
0.584412	0.301208	0.88562
0.660706	0.323792	0.984497
0.716553	0.333557	1.05011
0.747986	0.328369	1.07635
0.753479	0.307312	1.06079
0.730286	0.270996	1.00128
0.677795	0.222473	0.900269
0.597534	0.16571	0.763245
0.49408	0.10437	0.59845
0.373535	0.0430298	0.416565
0.246582	-0.0134277	0.233154
0.124207	-0.0631714	0.0610352
0.0146484	-0.10437	-0.0897217
-0.0769043	-0.133972	-0.210876
-0.148926	-0.149536	-0.298462
-0.198059	-0.154114	-0.352173
-0.222168	-0.152588	-0.374756
-0.224609	-0.1474	-0.372009
-0.210266	-0.139465	-0.349731
-0.185852	-0.129089	-0.314941
-0.155334	-0.116272	-0.271606
-0.125427	-0.101013	-0.22644
-0.101624	-0.0842285	-0.185852
-0.0863647	-0.0674438	-0.153809
-0.0796509	-0.0512695	-0.13092
-0.0793457	-0.0363159	-0.115662
-0.0845337	-0.022583	-0.107117
-0.0933838	-0.00976563	-0.103149
-0.102844	0.000305176	-0.102539
-0.109863	0.00610352	-0.10376
-0.114441	0.00823975	-0.106201
-0.115662	0.00579834	-0.109863
-0.11261	0.000305176	-0.112305
-0.107727	-0.00518799	-0.112915
-0.102234	-0.00915527	-0.111389
-0.0967407	-0.0112915	-0.108032
-0.0921631	-0.0115967	-0.10376
-0.0869751	-0.0109863	-0.0979614
-0.0811768	-0.010376	-0.0915527
-0.0759888	-0.0088501	-0.0848389
-0.0714111	-0.00823975	-0.0796509
-0.0668335	-0.0088501	-0.0756836
-0.0604248	-0.0115967	-0.0720215
-0.0521851	-0.0158691	-0.0680542
-0.0457764	-0.0195313	-0.0653076
-0.0439453	-0.0204468	-0.0643921
-0.0436401	-0.020752	-0.0643921
-0.043335	-0.0213623	-0.0646973
-0.0445557	-0.0201416	-0.0646973
-0.0473022	-0.0164795	-0.0637817
-0.050354	-0.0119019	-0.0622559
-0.0534058	-0.00640869	-0.0598145
-0.0585938	0.0012207	-0.057373
-0.0650024	0.010376	-0.0546265
-0.0689697	0.0177002	-0.0512695
-0.0695801	0.020752	-0.0488281
-0.0674438	0.0192261	-0.0482178
-0.0637817	0.0152588	-0.0485229
-0.0613403	0.0109863	-0.050354
-0.0595093	0.00732422	-0.0521851
-0.0564575	0.00335693	-0.0531006
-0.0524902	-0.000610352	-0.0531006
-0.0485229	-0.00457764	-0.0531006
-0.0445557	-0.00762939	-0.0521851
-0.0405884	-0.00946045	-0.0500488
-0.038147	-0.00854492	-0.0466919
-0.0360107	-0.00640869	-0.0424194
-0.0341797	-0.00274658	-0.0369263
-0.0305176	-0.000305176	-0.0308228
-0.0262451	0.000915527	-0.0253296
-0.0253296	0.00366211	-0.0216675
-0.0262451	0.00793457	-0.0183105
-0.0271606	0.010376	-0.0167847
-0.0265503	0.010376	-0.0161743
-0.0238037	0.00762939	-0.0161743
-0.0195313	0.00335693	-0.0161743
-0.0177002	0	-0.0177002
-0.0183105	-0.000610352	-0.0189209
-0.0186157	-0.000610352	-0.0192261
-0.017395	-0.000915527	-0.0183105
-0.0143433	-0.00213623	-0.0164795
-0.00915527	-0.00427246	-0.0134277
-0.00427246	-0.00579834	-0.0100708
0.000305176	-0.00549316	-0.00518799
0.00579834	-0.00427246	0.00152588
0.0112915	-0.00305176	0.00823975
0.017395	-0.00244141	0.0149536
0.0250244	-0.00335693	0.0216675
0.0335693	-0.00427246	0.0292969
0.0421143	-0.00549316	0.0366211
0.0500488	-0.00732422	0.0427246
0.057373	-0.00976563	0.0476074
0.0640869	-0.012207	0.0518799
0.0674438	-0.0119019	0.055542
0.0686646	-0.00946045	0.0592041
0.0695801	-0.00793457	0.0616455
0.0708008	-0.00640869	0.0643921
0.071106	-0.00457764	0.0665283
0.0708008	-0.00213623	0.0686646
0.071106	0	0.071106
0.0735474	0.00152588	0.0750732
0.0775146	0.00274658	0.0802612
0.0808716	0.00396729	0.0848389
0.0845337	0.00488281	0.0894165
0.0897217	0.00488281	0.0946045
0.0976563	0.00427246	0.101929
0.106506	0.00366211	0.110168
0.113525	0.00457764	0.118103
0.119324	0.00579834	0.125122
0.125427	0.00610352	0.131531
0.131226	0.00701904	0.138245
0.134277	0.0100708	0.144348
0.135803	0.0134277	0.149231
0.136414	0.017395	0.153809
0.135803	0.0216675	0.157471
0.133972	0.0262451	0.160217
0.131836	0.0305176	0.162354
0.13031	0.0335693	0.163879
0.129395	0.0363159	0.16571
0.126953	0.039978	0.166931
0.123291	0.0442505	0.167542
0.119629	0.0488281	0.168457
0.116577	0.0534058	0.169983
0.113525	0.0576782	0.171204
0.111389	0.06073	0.172119
0.109558	0.0616455	0.171204
0.106506	0.0622559	0.168762
0.102234	0.0634766	0.16571
0.0970459	0.0650024	0.162048
0.0915527	0.0662231	0.157776
0.0848389	0.0665283	0.151367
0.0759888	0.0671387	0.143127
0.0665283	0.0671387	0.133667
0.0585938	0.0656128	0.124207
0.0521851	0.0622559	0.114441
0.0463867	0.0592041	0.105591
0.0375366	0.0592041	0.0967407
0.0262451	0.0616455	0.0878906
0.0167847	0.0628662	0.0796509
0.00671387	0.0634766	0.0701904
-0.00518799	0.0650024	0.0598145
-0.0183105	0.0662231	0.0479126
-0.0314331	0.0668335	0.0354004
-0.0430298	0.0662231	0.0231934
-0.0534058	0.0650024	0.0115967
-0.0637817	0.0643921	0.000610352
-0.0723267	0.0631714	-0.00915527
-0.0769043	0.0592041	-0.0177002
-0.0790405	0.0546265	-0.0244141
-0.0805664	0.0512695	-0.0292969
-0.0808716	0.0482178	-0.0326538
-0.0802612	0.0454712	-0.03479
-0.0799561	0.0436401	-0.0363159
-0.0793457	0.0430298	-0.0363159
-0.0790405	0.0424194	-0.0366211
-0.0805664	0.0427246	-0.0378418
-0.0845337	0.0442505	-0.0402832
-0.0888062	0.0445557	-0.0442505
-0.0921631	0.0439453	-0.0482178
-0.0961304	0.0448608	-0.0512695
-0.0997925	0.0466919	-0.0531006
-0.101318	0.0469971	-0.0543213
-0.100403	0.0457764	-0.0546265
-0.0991821	0.0439453	-0.0552368
-0.0985718	0.0424194	-0.0561523
-0.0979614	0.0408936	-0.0570679
-0.0961304	0.0387573	-0.057373
-0.0933838	0.0363159	-0.0570679
-0.0900269	0.0341797	-0.0558472
-0.0875854	0.0317383	-0.0558472
-0.0866699	0.0296021	-0.0570679
-0.0872803	0.0283813	-0.0588989
-0.0888062	0.0289917	-0.0598145
-0.0906372	0.0314331	-0.0592041
-0.0912476	0.0335693	-0.0576782
-0.0912476	0.03479	-0.0564575
-0.0906372	0.0360107	-0.0546265
-0.0891113	0.0366211	-0.0524902
-0.0872803	0.0372314	-0.0500488
-0.0860596	0.038147	-0.0479126
-0.0854492	0.039978	-0.0454712
-0.0842285	0.0405884	-0.0436401
-0.0814819	0.0393677	-0.0421143
-0.0787354	0.0384521	-0.0402832
-0.0769043	0.0378418	-0.0390625
-0.0744629	0.0369263	-0.0375366
-0.0723267	0.0354004	-0.0369263
-0.0714111	0.03479	-0.0366211
-0.0735474	0.0357056	-0.0378418
-0.0775146	0.0387573	-0.0387573
-0.0805664	0.0418091	-0.0387573
-0.0811768	0.0424194	-0.0387573
-0.0793457	0.0415039	-0.0378418
-0.0765991	0.039978	-0.0366211
-0.0714111	0.0372314	-0.0341797
-0.0653076	0.0338745	-0.0314331
-0.06073	0.0320435	-0.0286865
-0.0582886	0.0323486	-0.0259399
-0.0549316	0.0317383	-0.0231934
-0.0509644	0.0292969	-0.0216675
-0.0491333	0.0280762	-0.0210571
-0.0500488	0.0289917	-0.0210571
-0.0537109	0.0320435	-0.0216675
-0.0601196	0.0375366	-0.022583
-0.0695801	0.0460815	-0.0234985
-0.0778198	0.0531006	-0.0247192
-0.0820923	0.0564575	-0.0256348
-0.0827026	0.057373	-0.0253296
-0.0808716	0.057373	-0.0234985
-0.0775146	0.0552368	-0.0222778
-0.0723267	0.0512695	-0.0210571
-0.0646973	0.045166	-0.0195313
-0.0570679	0.0393677	-0.0177002
-0.050354	0.0338745	-0.0164795
-0.0448608	0.0292969	-0.015564
-0.0424194	0.0262451	-0.0161743
-0.0430298	0.0256348	-0.017395
-0.0460815	0.0268555	-0.0192261
-0.0494385	0.0283813	-0.0210571
-0.0518799	0.0302124	-0.0216675
-0.0534058	0.0320435	-0.0213623
-0.0561523	0.0341797	-0.0219727
-0.0592041	0.0360107	-0.0231934
-0.0613403	0.0363159	-0.0250244
-0.0637817	0.0366211	-0.0271606
-0.0671387	0.0375366	-0.0296021
-0.0695801	0.0384521	-0.0311279
-0.0704956	0.0384521	-0.0320435
-0.0695801	0.0375366	-0.0320435
-0.0686646	0.0366211	-0.0320435
-0.0686646	0.0366211	-0.0320435
-0.0680542	0.0375366	-0.0305176
-0.0653076	0.0372314	-0.0280762
-0.0613403	0.0360107	-0.0253296
-0.0576782	0.03479	-0.0228882
-0.0546265	0.0338745	-0.020752
-0.0531006	0.0332642	-0.0198364
-0.0524902	0.0323486	-0.0201416
-0.0524902	0.0317383	-0.020752
-0.0524902	0.0308228	-0.0216675
-0.0531006	0.0296021	-0.0234985
-0.0549316	0.0283813	-0.0265503
-0.0576782	0.0268555	-0.0308228
-0.0588989	0.0244141	-0.0344849
-0.0601196	0.0228882	-0.0372314
-0.0637817	0.0256348	-0.038147
-0.0692749	0.0302124	-0.0390625
-0.0708008	0.0323486	-0.0384521
-0.0689697	0.0314331	-0.0375366
-0.0656128	0.0302124	-0.0354004
-0.062561	0.0296021	-0.032959
-0.0622559	0.0314331	-0.0308228
-0.0637817	0.03479	-0.0289917
-0.0643921	0.0369263	-0.0274658
-0.062561	0.0372314	-0.0253296
-0.0598145	0.0350952	-0.0247192
-0.0564575	0.0323486	-0.0241089
-0.0540161	0.0302124	-0.0238037
-0.0527954	0.0296021	-0.0231934
-0.0531006	0.0296021	-0.0234985
-0.0549316	0.0296021	-0.0253296
-0.0570679	0.0296021	-0.0274658
-0.0579834	0.0286865	-0.0292969
-0.0576782	0.0274658	-0.0302124
-0.0567627	0.0259399	-0.0308228
-0.0564575	0.0241089	-0.0323486
-0.0567627	0.0219727	-0.03479
-0.055542	0.0195313	-0.0360107
-0.0534058	0.0170898	-0.0363159
-0.0515747	0.015564	-0.0360107
-0.0506592	0.0149536	-0.0357056
-0.0494385	0.0143433	-0.0350952
-0.0476074	0.0128174	-0.03479
-0.0457764	0.0119019	-0.0338745
-0.0457764	0.0119019	-0.0338745
-0.0482178	0.0131226	-0.0350952
-0.0521851	0.0149536	-0.0372314
-0.0567627	0.0177002	-0.0390625
-0.0619507	0.0213623	-0.0405884
-0.0662231	0.0247192	-0.0415039
-0.0695801	0.027771	-0.0418091
-0.0726318	0.0314331	-0.0411987
-0.0753784	0.0344849	-0.0408936
-0.0784302	0.038147	-0.0402832
-0.0802612	0.0415039	-0.0387573
-0.0799561	0.0421143	-0.0378418
-0.0762939	0.039978	-0.0363159
-0.0704956	0.0360107	-0.0344849
-0.0653076	0.0308228	-0.0344849
-0.0598145	0.0247192	-0.0350952
-0.0552368	0.0186157	-0.0366211
-0.0521851	0.0143433	-0.0378418
-0.0509644	0.0128174	-0.038147
-0.0500488	0.0119019	-0.038147
-0.0473022	0.00976563	-0.0375366
-0.0436401	0.00701904	-0.0366211
-0.0439453	0.00793457	-0.0360107
-0.0491333	0.0131226	-0.0360107
-0.0552368	0.0195313	-0.0357056
-0.0582886	0.0222778	-0.0360107
-0.0585938	0.0222778	-0.0363159
-0.0588989	0.0222778	-0.0366211
-0.06073	0.0228882	-0.0378418
-0.0637817	0.0247192	-0.0390625
-0.0656128	0.0271606	-0.0384521
-0.0646973	0.0289917	-0.0357056
-0.0619507	0.0311279	-0.0308228
-0.0576782	0.032959	-0.0247192
-0.0524902	0.0344849	-0.0180054
-0.0473022	0.0357056	-0.0115967
-0.0430298	0.0375366	-0.00549316
-0.0415039	0.0421143	0.000610352
-0.0421143	0.0473022	0.00518799
-0.0421143	0.0524902	0.010376
-0.0408936	0.0558472	0.0149536
-0.0384521	0.0576782	0.0192261
-0.0366211	0.0592041	0.022583
-0.0357056	0.0613403	0.0256348
-0.03479	0.0637817	0.0289917
-0.0335693	0.0653076	0.0317383
-0.0305176	0.0653076	0.03479
-0.0234985	0.0610352	0.0375366
-0.0134277	0.0537109	0.0402832
-0.00244141	0.0454712	0.0430298
0.00610352	0.0393677	0.0454712
0.0134277	0.0357056	0.0491333
0.0204468	0.0320435	0.0524902
0.0262451	0.0286865	0.0549316
0.0305176	0.0265503	0.0570679
0.0335693	0.0253296	0.0588989
0.03479	0.0256348	0.0604248
0.0344849	0.0280762	0.062561
0.0323486	0.0305176	0.0628662
0.0286865	0.0326538	0.0613403
0.0244141	0.0332642	0.0576782
0.0192261	0.0326538	0.0518799
0.0140381	0.0292969	0.043335
0.00976563	0.0238037	0.0335693
0.00579834	0.017395	0.0231934
0.00183105	0.0119019	0.0137329
0.000915527	0.00549316	0.00640869
0.00152588	-0.000610352	0.000915527
0.00152588	-0.00579834	-0.00427246
0.0012207	-0.0100708	-0.0088501
-0.000610352	-0.0125122	-0.0131226
-0.00488281	-0.0119019	-0.0167847
-0.0112915	-0.00915527	-0.0204468
-0.0177002	-0.00610352	-0.0238037
-0.0250244	-0.00335693	-0.0283813
-0.0363159	0.00274658	-0.0335693
-0.0497437	0.0106812	-0.0390625
-0.06073	0.0164795	-0.0442505
-0.0680542	0.0195313	-0.0485229
-0.0738525	0.0201416	-0.0537109
-0.0778198	0.0192261	-0.0585938
-0.0808716	0.0177002	-0.0631714
-0.0842285	0.0170898	-0.0671387
-0.0857544	0.0161743	-0.0695801
-0.0845337	0.0137329	-0.0708008
-0.0827026	0.0109863	-0.0717163
-0.0811768	0.0088501	-0.0723267
-0.0808716	0.00762939	-0.0732422
-0.0799561	0.00610352	-0.0738525
-0.0784302	0.00457764	-0.0738525
-0.0756836	0.00274658	-0.072937
-0.0732422	0.0012207	-0.0720215
-0.0723267	0.000915527	-0.0714111
-0.0717163	0.0012207	-0.0704956
-0.0708008	0.00183105	-0.0689697
-0.0701904	0.00213623	-0.0680542
-0.0708008	0.00335693	-0.0674438
-0.0732422	0.00488281	-0.0683594
-0.0765991	0.00671387	-0.0698853
-0.0793457	0.00732422	-0.0720215
-0.0805664	0.00488281	-0.0756836
-0.0817871	-0.000305176	-0.0820923
-0.0836182	-0.00854492	-0.0921631
-0.0836182	-0.0216675	-0.105286
-0.0805664	-0.0387573	-0.119324
-0.0769043	-0.0552368	-0.132141
-0.0738525	-0.065918	-0.139771
-0.0701904	-0.0686646	-0.138855
-0.062561	-0.0637817	-0.126343
-0.0482178	-0.0512695	-0.0994873
-0.0241089	-0.0302124	-0.0543213
0.010376	0.000915527	0.0112915
0.0549316	0.0415039	0.0964355
0.110779	0.0875854	0.198364
0.179138	0.138245	0.317383
0.258789	0.193481	0.452271
0.345764	0.250854	0.596619
0.434265	0.302429	0.736694
0.519714	0.341492	0.861206
0.597839	0.365295	0.963135
0.660095	0.375366	1.03546
0.699768	0.371094	1.07086
0.715027	0.350037	1.06506
0.703125	0.311584	1.01471
0.662231	0.259705	0.921936
0.592041	0.2005	0.792542
0.496826	0.137329	0.634155
0.383911	0.0720215	0.455933
0.263367	0.00854492	0.271912
0.144043	-0.0482178	0.0958252
0.0332642	-0.0927734	-0.0595093
-0.0619507	-0.124207	-0.186157
-0.138245	-0.141907	-0.280151
-0.195618	-0.146179	-0.341797
-0.231934	-0.140991	-0.372925
-0.244446	-0.131226	-0.375671
-0.235901	-0.119019	-0.354919
-0.214233	-0.104675	-0.318909
-0.188293	-0.0888062	-0.2771
-0.162048	-0.0723267	-0.234375
-0.138855	-0.0576782	-0.196533
-0.119934	-0.0448608	-0.164795
-0.106506	-0.0341797	-0.140686
-0.098877	-0.0253296	-0.124207
-0.0964355	-0.0180054	-0.114441
-0.0979614	-0.012207	-0.110168
-0.100403	-0.0088501	-0.109253
-0.103149	-0.00701904	-0.110168
-0.10498	-0.00640869	-0.111389
-0.107422	-0.00579834	-0.11322
-0.108948	-0.00549316	-0.114441
-0.108337	-0.00640869	-0.114746
-0.106506	-0.00732422	-0.113831
-0.10498	-0.00762939	-0.11261
-0.102844	-0.00701904	-0.109863
-0.0997925	-0.00671387	-0.106506
-0.0964355	-0.00640869	-0.102844
-0.0933838	-0.00488281	-0.0982666
-0.0924683	-0.00213623	-0.0946045
-0.0930786	0.00152588	-0.0915527
-0.0924683	0.00335693	-0.0891113
-0.090332	0.00366211	-0.0866699
-0.0869751	0.00213623	-0.0848389
-0.0848389	0.000305176	-0.0845337
-0.0860596	0.0012207	-0.0848389
-0.0888062	0.00244141	-0.0863647
-0.0918579	0.00366211	-0.0881958
-0.0927734	0.00366211	-0.0891113
-0.0912476	0.00274658	-0.088501
-0.0900269	0.00274658	-0.0872803
-0.0897217	0.00457764	-0.085144
-0.0891113	0.00640869	-0.0827026
-0.088501	0.00762939	-0.0808716
-0.0875854	0.00915527	-0.0784302
-0.0857544	0.00976563	-0.0759888
-0.0827026	0.00915527	-0.0735474
-0.0787354	0.00701904	-0.0717163
-0.0735474	0.00274658	-0.0708008
-0.0656128	-0.00427246	-0.0698853
-0.0588989	-0.00976563	-0.0686646
-0.0564575	-0.0109863	-0.0674438
-0.0552368	-0.0109863	-0.0662231
-0.0527954	-0.0125122	-0.0653076
-0.0500488	-0.0143433	-0.0643921
-0.0491333	-0.0131226	-0.0622559
-0.0494385	-0.0088501	-0.0582886
-0.0506592	-0.00427246	-0.0549316
-0.0524902	0.000305176	-0.0521851
-0.0546265	0.00427246	-0.050354
-0.055542	0.00701904	-0.0485229
-0.0549316	0.00854492	-0.0463867
-0.0524902	0.00823975	-0.0442505
-0.0488281	0.00610352	-0.0427246
-0.0436401	0.00335693	-0.0402832
-0.0375366	0.000305176	-0.0372314
-0.0311279	-0.00274658	-0.0338745
-0.0253296	-0.00518799	-0.0305176
-0.0198364	-0.00671387	-0.0265503
-0.0146484	-0.00732422	-0.0219727
-0.0112915	-0.00640869	-0.0177002
-0.00915527	-0.00488281	-0.0140381
-0.00732422	-0.00457764	-0.0119019
-0.00488281	-0.00518799	-0.0100708
-0.000915527	-0.00640869	-0.00732422
0.00427246	-0.00854492	-0.00427246
0.0088501	-0.0106812	-0.00183105
0.0140381	-0.0119019	0.00213623
0.020752	-0.0131226	0.00762939
0.027771	-0.0137329	0.0140381
0.0335693	-0.0125122	0.0210571
0.0393677	-0.0100708	0.0292969
0.0454712	-0.00671387	0.0387573
0.0512695	-0.00213623	0.0491333
0.0567627	0.00213623	0.0588989
0.0631714	0.00518799	0.0683594
0.0692749	0.00823975	0.0775146
0.0738525	0.0125122	0.0863647
0.0787354	0.0146484	0.0933838
0.0860596	0.0131226	0.0991821
0.0924683	0.0106812	0.103149
0.093689	0.0112915	0.10498
0.0921631	0.0149536	0.107117
0.0915527	0.0183105	0.109863
0.0924683	0.0198364	0.112305
0.0933838	0.0213623	0.114746
0.0949097	0.0222778	0.117188
0.0979614	0.0222778	0.120239
0.102539	0.020752	0.123291
0.107727	0.0192261	0.126953
0.112915	0.0177002	0.130615
0.119324	0.0143433	0.133667
0.127563	0.00915527	0.136719
0.134583	0.00549316	0.140076
0.138855	0.00427246	0.143127
0.139465	0.00579834	0.145264
0.137024	0.0100708	0.147095
0.132141	0.0158691	0.14801
0.126038	0.0231934	0.149231
0.120544	0.0299072	0.150452
0.116272	0.0363159	0.152588
0.11322	0.0418091	0.155029
0.110474	0.0469971	0.157471
0.107117	0.0515747	0.158691
0.10376	0.055542	0.159302
0.100098	0.0582886	0.158386
0.0964355	0.0598145	0.15625
0.0933838	0.0601196	0.153503
0.0891113	0.0604248	0.149536
0.0827026	0.0613403	0.144043
0.0756836	0.0616455	0.137329
0.0674438	0.062561	0.130005
0.057373	0.0643921	0.121765
0.0466919	0.0665283	0.11322
0.0357056	0.0686646	0.10437
0.0241089	0.0695801	0.093689
0.0128174	0.0695801	0.0823975
0.00274658	0.0683594	0.071106
-0.00640869	0.0665283	0.0601196
-0.0158691	0.0650024	0.0491333
-0.0265503	0.0634766	0.0369263
-0.0366211	0.0613403	0.0247192
-0.0448608	0.0576782	0.0128174
-0.0515747	0.0531006	0.00152588
-0.0579834	0.0491333	-0.0088501
-0.0653076	0.0476074	-0.0177002
-0.0732422	0.0479126	-0.0253296
-0.0793457	0.0485229	-0.0308228
-0.0848389	0.0494385	-0.0354004
-0.0900269	0.0515747	-0.0384521
-0.09552	0.0537109	-0.0418091
-0.100403	0.0549316	-0.0454712
-0.103149	0.0540161	-0.0491333
-0.102844	0.0515747	-0.0512695
-0.0997925	0.0479126	-0.0518799
-0.0961304	0.0430298	-0.0531006
-0.0924683	0.0372314	-0.0552368
-0.0888062	0.0305176	-0.0582886
-0.0842285	0.0234985	-0.06073
-0.0790405	0.0164795	-0.062561
-0.0744629	0.0112915	-0.0631714
-0.0744629	0.0109863	-0.0634766
-0.0769043	0.0131226	-0.0637817
-0.0793457	0.0158691	-0.0634766
-0.0814819	0.0186157	-0.0628662
-0.0848389	0.0234985	-0.0613403
-0.0906372	0.0305176	-0.0601196
-0.0973511	0.038147	-0.0592041
-0.102844	0.0439453	-0.0588989
-0.106812	0.0485229	-0.0582886
-0.109253	0.0512695	-0.0579834
-0.110474	0.0524902	-0.0579834
-0.111084	0.0521851	-0.0588989
-0.110779	0.0506592	-0.0601196
-0.109558	0.0473022	-0.0622559
-0.105591	0.0436401	-0.0619507
-0.0997925	0.0405884	-0.0592041
-0.0933838	0.0369263	-0.0564575
-0.0872803	0.0332642	-0.0540161
-0.0827026	0.0296021	-0.0531006
-0.0811768	0.027771	-0.0534058
-0.0799561	0.0271606	-0.0527954
-0.0787354	0.0268555	-0.0518799
-0.0775146	0.0265503	-0.0509644
-0.0753784	0.0250244	-0.050354
-0.0744629	0.0244141	-0.0500488
-0.0765991	0.0259399	-0.0506592
-0.0799561	0.0286865	-0.0512695
-0.0814819	0.0299072	-0.0515747
-0.0805664	0.0299072	-0.0506592
-0.0790405	0.0302124	-0.0488281
-0.078125	0.0317383	-0.0463867
-0.0787354	0.0344849	-0.0442505
-0.0811768	0.0384521	-0.0427246
-0.0839233	0.0424194	-0.0415039
-0.0839233	0.0442505	-0.0396729
-0.0823975	0.0439453	-0.0384521
-0.0799561	0.0427246	-0.0372314
-0.078125	0.0415039	-0.0366211
-0.0762939	0.0405884	-0.0357056
-0.072937	0.0384521	-0.0344849
-0.0662231	0.03479	-0.0314331
-0.0585938	0.0311279	-0.0274658
-0.0527954	0.0280762	-0.0247192
-0.0488281	0.0256348	-0.0231934
-0.0473022	0.0250244	-0.0222778
-0.0494385	0.027771	-0.0216675
-0.0537109	0.0314331	-0.0222778
-0.0576782	0.0335693	-0.0241089
-0.0616455	0.03479	-0.0268555
-0.0656128	0.0366211	-0.0289917
-0.0692749	0.0375366	-0.0317383
-0.0717163	0.0372314	-0.0344849
-0.072937	0.0363159	-0.0366211
-0.0720215	0.0344849	-0.0375366
-0.0683594	0.0305176	-0.0378418
-0.0622559	0.0259399	-0.0363159
-0.0561523	0.0213623	-0.03479
-0.0494385	0.0170898	-0.0323486
-0.0439453	0.0134277	-0.0305176
-0.0402832	0.0109863	-0.0292969
-0.0384521	0.00976563	-0.0286865
-0.0369263	0.00946045	-0.0274658
-0.0354004	0.0100708	-0.0253296
-0.03479	0.0106812	-0.0241089
-0.0357056	0.0119019	-0.0238037
-0.038147	0.0134277	-0.0247192
-0.0421143	0.015564	-0.0265503
-0.0466919	0.0183105	-0.0283813
-0.0494385	0.0198364	-0.0296021
-0.0494385	0.0192261	-0.0302124
-0.0479126	0.0170898	-0.0308228
-0.0473022	0.0149536	-0.0323486
-0.0463867	0.0131226	-0.0332642
-0.0454712	0.0125122	-0.032959
-0.0439453	0.0125122	-0.0314331
-0.0411987	0.0119019	-0.0292969
-0.0378418	0.0106812	-0.0271606
-0.0369263	0.0115967	-0.0253296
-0.0396729	0.0149536	-0.0247192
-0.0442505	0.0201416	-0.0241089
-0.0488281	0.0253296	-0.0234985
-0.0527954	0.0289917	-0.0238037
-0.055542	0.0302124	-0.0253296
-0.0579834	0.0305176	-0.0274658
-0.0631714	0.032959	-0.0302124
-0.0689697	0.038147	-0.0308228
-0.0714111	0.0421143	-0.0292969
-0.0689697	0.0424194	-0.0265503
-0.0646973	0.0402832	-0.0244141
-0.0592041	0.0369263	-0.0222778
-0.0527954	0.032959	-0.0198364
-0.0497437	0.0314331	-0.0183105
-0.0485229	0.0311279	-0.017395
-0.0457764	0.0286865	-0.0170898
-0.0411987	0.0234985	-0.0177002
-0.038147	0.0183105	-0.0198364
-0.0378418	0.015564	-0.0222778
-0.0396729	0.0149536	-0.0247192
-0.0424194	0.0152588	-0.0271606
-0.0448608	0.0158691	-0.0289917
-0.0466919	0.0167847	-0.0299072
-0.0482178	0.0183105	-0.0299072
-0.0500488	0.0201416	-0.0299072
-0.0509644	0.0213623	-0.0296021
-0.0509644	0.0213623	-0.0296021
-0.0500488	0.0201416	-0.0299072
-0.0476074	0.0186157	-0.0289917
-0.0442505	0.0161743	-0.0280762
-0.0405884	0.0131226	-0.0274658
-0.038147	0.0106812	-0.0274658
-0.0372314	0.00976563	-0.0274658
-0.0369263	0.0100708	-0.0268555
-0.038147	0.0131226	-0.0250244
-0.039978	0.0167847	-0.0231934
-0.0421143	0.0198364	-0.0222778
-0.043335	0.0216675	-0.0216675
-0.0427246	0.0213623	-0.0213623
-0.0421143	0.0213623	-0.020752
-0.043335	0.0234985	-0.0198364
-0.045166	0.0262451	-0.0189209
-0.0454712	0.0268555	-0.0186157
-0.0442505	0.0250244	-0.0192261
-0.0408936	0.0210571	-0.0198364
-0.03479	0.0152588	-0.0195313
-0.0308228	0.0112915	-0.0195313
-0.0320435	0.0119019	-0.0201416
-0.0357056	0.0137329	-0.0219727
-0.0372314	0.0125122	-0.0247192
-0.0350952	0.00732422	-0.027771
-0.0335693	0.00335693	-0.0302124
-0.0357056	0.00305176	-0.0326538
-0.039978	0.00457764	-0.0354004
-0.0439453	0.00671387	-0.0372314
-0.0479126	0.00915527	-0.0387573
-0.0515747	0.012207	-0.0393677
-0.0552368	0.015564	-0.0396729
-0.0588989	0.0195313	-0.0393677
-0.062561	0.0234985	-0.0390625
-0.0646973	0.0268555	-0.0378418
-0.0646973	0.0292969	-0.0354004
-0.0622559	0.0299072	-0.0323486
-0.0585938	0.0286865	-0.0299072
-0.0537109	0.0268555	-0.0268555
-0.0482178	0.0247192	-0.0234985
-0.0424194	0.0222778	-0.0201416
-0.0369263	0.0195313	-0.017395
-0.0305176	0.017395	-0.0131226
-0.0250244	0.0158691	-0.00915527
-0.0222778	0.0161743	-0.00610352
-0.0216675	0.0183105	-0.00335693
-0.022583	0.0222778	-0.000305176
-0.0241089	0.0268555	0.00274658
-0.0253296	0.0314331	0.00610352
-0.0265503	0.0366211	0.0100708
-0.0259399	0.0405884	0.0146484
-0.0238037	0.043335	0.0195313
-0.0210571	0.045166	0.0241089
-0.0170898	0.0457764	0.0286865
-0.012207	0.0445557	0.0323486
-0.00701904	0.0415039	0.0344849
-0.00244141	0.0369263	0.0344849
0.00244141	0.0317383	0.0341797
0.0088501	0.0265503	0.0354004
0.0170898	0.0219727	0.0390625
0.0256348	0.0177002	0.043335
0.0335693	0.0137329	0.0473022
0.0393677	0.0109863	0.050354
0.0418091	0.0109863	0.0527954
0.0415039	0.0134277	0.0549316
0.0411987	0.0161743	0.057373
0.0415039	0.0170898	0.0585938
0.039978	0.0180054	0.0579834
0.0378418	0.0170898	0.0549316
0.0354004	0.0128174	0.0482178
0.0326538	0.00640869	0.0390625
0.0286865	-0.000305176	0.0283813
0.0238037	-0.00579834	0.0180054
0.0195313	-0.0100708	0.00946045
0.0167847	-0.0143433	0.00244141
0.0152588	-0.0189209	-0.00366211
0.0131226	-0.0228882	-0.00976563
0.00946045	-0.0241089	-0.0146484
0.00396729	-0.0216675	-0.0177002
-0.00396729	-0.015564	-0.0195313
-0.0125122	-0.00854492	-0.0210571
-0.0195313	-0.00244141	-0.0219727
-0.0256348	0.00213623	-0.0234985
-0.0305176	0.00457764	-0.0259399
-0.0332642	0.00427246	-0.0289917
-0.0344849	0.00244141	-0.0320435
-0.0350952	0.000305176	-0.03479
-0.0369263	-0.00183105	-0.0387573
-0.0393677	-0.00396729	-0.043335
-0.0421143	-0.00671387	-0.0488281
-0.0460815	-0.0088501	-0.0549316
-0.050354	-0.0109863	-0.0613403
-0.0534058	-0.0134277	-0.0668335
-0.0552368	-0.0158691	-0.071106
-0.0585938	-0.0164795	-0.0750732
-0.0640869	-0.0146484	-0.0787354
-0.0692749	-0.0119019	-0.0811768
-0.0717163	-0.010376	-0.0820923
-0.0717163	-0.0100708	-0.0817871
-0.0701904	-0.010376	-0.0805664
-0.0674438	-0.0112915	-0.0787354
-0.0662231	-0.0109863	-0.0772095
-0.0665283	-0.00915527	-0.0756836
-0.0668335	-0.00823975	-0.0750732
-0.0662231	-0.0088501	-0.0750732
-0.0637817	-0.0112915	-0.0750732
-0.0631714	-0.0134277	-0.0765991
-0.0665283	-0.0128174	-0.0793457
-0.0689697	-0.015564	-0.0845337
-0.0689697	-0.0247192	-0.093689
-0.0695801	-0.0363159	-0.105896
-0.072937	-0.0473022	-0.120239
-0.0765991	-0.0585938	-0.135193
-0.0808716	-0.0674438	-0.148315
-0.0836182	-0.0717163	-0.155334
-0.0820923	-0.0692749	-0.151367
-0.0744629	-0.0598145	-0.134277
-0.0576782	-0.0436401	-0.101318
-0.0289917	-0.0210571	-0.0500488
0.0119019	0.0088501	0.020752
0.0650024	0.045166	0.110168
0.130005	0.0866699	0.216675
0.206604	0.133667	0.340271
0.294189	0.184937	0.479126
0.389709	0.234375	0.624084
0.485229	0.275269	0.760498
0.571899	0.304871	0.87677
0.643921	0.323181	0.967102
0.69519	0.32959	1.02478
0.722961	0.321045	1.04401
0.726013	0.29541	1.02142
0.70282	0.255127	0.957947
0.65033	0.204773	0.855103
0.567932	0.150452	0.718384
0.462036	0.0933838	0.55542
0.342712	0.03479	0.377502
0.220947	-0.0219727	0.198975
0.105591	-0.0720215	0.0335693
0.00274658	-0.110779	-0.108032
-0.0845337	-0.136414	-0.220947
-0.153198	-0.149841	-0.30304
-0.19928	-0.153809	-0.353088
-0.223694	-0.151062	-0.374756
-0.227966	-0.143738	-0.371704
-0.216064	-0.134277	-0.350342
-0.194397	-0.121765	-0.316162
-0.169067	-0.106812	-0.275879
-0.141907	-0.0912476	-0.233154
-0.117188	-0.0756836	-0.192871
-0.0985718	-0.0610352	-0.159607
-0.0872803	-0.0476074	-0.134888
-0.0817871	-0.0366211	-0.118408
-0.0790405	-0.0283813	-0.107422
-0.078125	-0.0231934	-0.101318
-0.0784302	-0.0204468	-0.098877
-0.0787354	-0.0192261	-0.0979614
-0.0784302	-0.0192261	-0.0976563
-0.0787354	-0.0198364	-0.0985718
-0.0802612	-0.0195313	-0.0997925
-0.0842285	-0.017395	-0.101624
-0.0881958	-0.0140381	-0.102234
-0.0912476	-0.0109863	-0.102234
-0.0918579	-0.00915527	-0.101013
-0.0912476	-0.00732422	-0.0985718
-0.090332	-0.00549316	-0.0958252
-0.088501	-0.00427246	-0.0927734
-0.0860596	-0.00335693	-0.0894165
-0.083313	-0.00244141	-0.0857544
-0.0814819	-0.000305176	-0.0817871
-0.0790405	0.00152588	-0.0775146
-0.0744629	0.0012207	-0.0732422
-0.0686646	-0.000610352	-0.0692749
-0.0640869	-0.00213623	-0.0662231
-0.0616455	-0.00274658	-0.0643921
-0.0604248	-0.00274658	-0.0631714
-0.0601196	-0.00183105	-0.0619507
-0.0598145	-0.000915527	-0.06073
-0.0585938	-0.00213623	-0.06073
-0.0558472	-0.00549316	-0.0613403
-0.0531006	-0.00854492	-0.0616455
-0.0509644	-0.00976563	-0.06073
-0.0500488	-0.0088501	-0.0588989
-0.0494385	-0.00732422	-0.0567627
-0.0473022	-0.00671387	-0.0540161
-0.0445557	-0.00823975	-0.0527954
-0.0415039	-0.0100708	-0.0515747
-0.0372314	-0.0134277	-0.0506592
-0.0308228	-0.0192261	-0.0500488
-0.0262451	-0.0247192	-0.0509644
-0.0259399	-0.0271606	-0.0531006
-0.0259399	-0.0280762	-0.0540161
-0.0244141	-0.0289917	-0.0534058
-0.022583	-0.0296021	-0.0521851
-0.0216675	-0.0286865	-0.050354
-0.0219727	-0.0259399	-0.0479126
-0.0238037	-0.0213623	-0.045166
-0.0262451	-0.0158691	-0.0421143
-0.0280762	-0.0106812	-0.0387573
-0.0271606	-0.00762939	-0.03479
-0.0244141	-0.00640869	-0.0308228
-0.0213623	-0.00671387	-0.0280762
-0.0183105	-0.00732422	-0.0256348
-0.0161743	-0.00854492	-0.0247192
-0.015564	-0.00823975	-0.0238037
-0.0134277	-0.00915527	-0.022583
-0.00976563	-0.0109863	-0.020752
-0.00640869	-0.0119019	-0.0183105
-0.00366211	-0.0115967	-0.0152588
-0.0012207	-0.0109863	-0.012207
0.0012207	-0.010376	-0.00915527
0.00518799	-0.0109863	-0.00579834
0.0119019	-0.0140381	-0.00213623
0.0189209	-0.0164795	0.00244141
0.0244141	-0.017395	0.00701904
0.0296021	-0.0177002	0.0119019
0.0357056	-0.0195313	0.0161743
0.043335	-0.0234985	0.0198364
0.0512695	-0.0283813	0.0228882
0.0579834	-0.0326538	0.0253296
0.0619507	-0.0338745	0.0280762
0.0646973	-0.0332642	0.0314331
0.0689697	-0.0332642	0.0357056
0.0741577	-0.0338745	0.0402832
0.0796509	-0.0350952	0.0445557
0.0854492	-0.0363159	0.0491333
0.0918579	-0.0369263	0.0549316
0.0982666	-0.0363159	0.0619507
0.10376	-0.03479	0.0689697
0.109558	-0.0335693	0.0759888
0.116272	-0.0326538	0.0836182
0.123596	-0.0326538	0.0909424
0.13092	-0.0341797	0.0967407
0.137329	-0.0366211	0.100708
0.141907	-0.038147	0.10376
0.144653	-0.0378418	0.106812
0.14679	-0.0366211	0.110168
0.14801	-0.0335693	0.114441
0.147095	-0.0292969	0.117798
0.144958	-0.0244141	0.120544
0.142212	-0.0192261	0.122986
0.140381	-0.0134277	0.126953
0.138245	-0.00793457	0.13031
0.133362	-0.0012207	0.132141
0.128174	0.00549316	0.133667
0.124207	0.0106812	0.134888
0.122986	0.0134277	0.136414
0.124817	0.0134277	0.138245
0.126953	0.0112915	0.138245
0.128174	0.0100708	0.138245
0.127869	0.0109863	0.138855
0.126038	0.0143433	0.140381
0.123291	0.0183105	0.141602
0.12146	0.020752	0.142212
0.120239	0.022583	0.142822
0.114746	0.0271606	0.141907
0.105286	0.0338745	0.13916
0.0927734	0.0415039	0.134277
0.0784302	0.0479126	0.126343
0.0646973	0.0509644	0.115662
0.0521851	0.0518799	0.104065
0.0396729	0.0521851	0.0918579
0.0250244	0.0534058	0.0784302
0.0100708	0.0546265	0.0646973
-0.00213623	0.0531006	0.0509644
-0.010376	0.0485229	0.038147
-0.017395	0.0430298	0.0256348
-0.0234985	0.0372314	0.0137329
-0.0292969	0.0323486	0.00305176
-0.0341797	0.0289917	-0.00518799
-0.038147	0.0268555	-0.0112915
-0.0415039	0.0244141	-0.0170898
-0.0445557	0.0219727	-0.022583
-0.0476074	0.0201416	-0.0274658
-0.0521851	0.0198364	-0.0323486
-0.0585938	0.0210571	-0.0375366
-0.0653076	0.0231934	-0.0421143
-0.0701904	0.0244141	-0.0457764
-0.0738525	0.0244141	-0.0494385
-0.0772095	0.0241089	-0.0531006
-0.0827026	0.0250244	-0.0576782
-0.0906372	0.0280762	-0.062561
-0.0997925	0.0311279	-0.0686646
-0.108643	0.0341797	-0.0744629
-0.115356	0.0357056	-0.0796509
-0.119019	0.0360107	-0.0830078
-0.121155	0.0357056	-0.0854492
-0.122681	0.0360107	-0.0866699
-0.12207	0.0350952	-0.0869751
-0.119629	0.0323486	-0.0872803
-0.115051	0.0283813	-0.0866699
-0.107727	0.0228882	-0.0848389
-0.0985718	0.0161743	-0.0823975
-0.0897217	0.00946045	-0.0802612
-0.0839233	0.00366211	-0.0802612
-0.0836182	0.00213623	-0.0814819
-0.0875854	0.00396729	-0.0836182
-0.0918579	0.00762939	-0.0842285
-0.0961304	0.0106812	-0.0854492
-0.100708	0.0128174	-0.0878906
-0.103455	0.0134277	-0.0900269
-0.105286	0.0140381	-0.0912476
-0.107422	0.0158691	-0.0915527
-0.108643	0.0180054	-0.0906372
-0.106812	0.0180054	-0.0888062
-0.102539	0.0158691	-0.0866699
-0.0970459	0.0134277	-0.0836182
-0.0909424	0.0109863	-0.0799561
-0.0869751	0.00976563	-0.0772095
-0.0860596	0.010376	-0.0756836
-0.0869751	0.0109863	-0.0759888
-0.0872803	0.0106812	-0.0765991
-0.0860596	0.00946045	-0.0765991
-0.0823975	0.00671387	-0.0756836
-0.0799561	0.00488281	-0.0750732
-0.0793457	0.00518799	-0.0741577
-0.0784302	0.00579834	-0.0726318
-0.0762939	0.00579834	-0.0704956
-0.0735474	0.00549316	-0.0680542
-0.0723267	0.00671387	-0.0656128
-0.0735474	0.00946045	-0.0640869
-0.0765991	0.012207	-0.0643921
-0.0784302	0.0134277	-0.0650024
-0.078125	0.0134277	-0.0646973
-0.078125	0.0137329	-0.0643921
-0.0784302	0.0137329	-0.0646973
-0.078125	0.0131226	-0.0650024
-0.0772095	0.012207	-0.0650024
-0.0769043	0.0106812	-0.0662231
-0.0769043	0.00946045	-0.0674438
-0.078125	0.0106812	-0.0674438
-0.0802612	0.0146484	-0.0656128
-0.0817871	0.0180054	-0.0637817
-0.0808716	0.0192261	-0.0616455
-0.0796509	0.0186157	-0.0610352
-0.0802612	0.0192261	-0.0610352
-0.0823975	0.020752	-0.0616455
-0.0830078	0.0213623	-0.0616455
-0.0811768	0.020752	-0.0604248
-0.0772095	0.0180054	-0.0592041
-0.071106	0.0128174	-0.0582886
-0.0668335	0.00946045	-0.057373
-0.0640869	0.00762939	-0.0564575
-0.06073	0.00549316	-0.0552368
-0.057373	0.00305176	-0.0543213
-0.055542	0.00152588	-0.0540161
-0.0552368	0.00213623	-0.0531006
-0.0564575	0.00366211	-0.0527954
-0.0585938	0.00610352	-0.0524902
-0.0595093	0.00701904	-0.0524902
-0.0579834	0.00640869	-0.0515747
-0.0561523	0.00549316	-0.0506592
-0.0549316	0.00549316	-0.0494385
-0.0537109	0.00488281	-0.0488281
-0.0518799	0.00305176	-0.0488281
-0.0494385	0.000915527	-0.0485229
-0.0463867	-0.00183105	-0.0482178
-0.0442505	-0.00366211	-0.0479126
-0.0439453	-0.00427246	-0.0482178
-0.045166	-0.00335693	-0.0485229
-0.0476074	-0.00244141	-0.0500488
-0.0512695	-0.00152588	-0.0527954
-0.0561523	0.000610352	-0.055542
-0.0616455	0.00427246	-0.057373
-0.065918	0.0088501	-0.0570679
-0.0701904	0.0131226	-0.0570679
-0.0735474	0.0161743	-0.057373
-0.0759888	0.0170898	-0.0588989
-0.0772095	0.0177002	-0.0595093
-0.0765991	0.017395	-0.0592041
-0.0723267	0.015564	-0.0567627
-0.0665283	0.012207	-0.0543213
-0.0628662	0.0100708	-0.0527954
-0.0622559	0.0088501	-0.0534058
-0.0628662	0.00671387	-0.0561523
-0.0619507	0.00305176	-0.0588989
-0.0619507	0.000305176	-0.0616455
-0.0631714	-0.000610352	-0.0637817
-0.0656128	0.000610352	-0.0650024
-0.0689697	0.00335693	-0.0656128
-0.0723267	0.00579834	-0.0665283
-0.0750732	0.00823975	-0.0668335
-0.0765991	0.0106812	-0.065918
-0.0769043	0.0128174	-0.0640869
-0.0759888	0.0146484	-0.0613403
-0.0762939	0.0161743	-0.0601196
-0.0775146	0.0180054	-0.0595093
-0.0762939	0.0167847	-0.0595093
-0.0723267	0.012207	-0.0601196
-0.0671387	0.00671387	-0.0604248
-0.0631714	0.00183105	-0.0613403
-0.0613403	-0.00152588	-0.0628662
-0.0595093	-0.00457764	-0.0640869
-0.0567627	-0.00762939	-0.0643921
-0.0537109	-0.00976563	-0.0634766
-0.0497437	-0.0112915	-0.0610352
-0.0436401	-0.0143433	-0.0579834
-0.0363159	-0.0183105	-0.0546265
-0.0311279	-0.020752	-0.0518799
-0.0332642	-0.0167847	-0.0500488
-0.0421143	-0.00793457	-0.0500488
-0.0515747	0	-0.0515747
-0.0595093	0.00518799	-0.0543213
-0.0662231	0.00976563	-0.0564575
-0.072937	0.0134277	-0.0595093
-0.0796509	0.017395	-0.0622559
-0.0869751	0.0219727	-0.0650024
-0.0933838	0.0265503	-0.0668335
-0.09552	0.0274658	-0.0680542
-0.0912476	0.0231934	-0.0680542
-0.083313	0.0158691	-0.0674438
-0.0744629	0.00793457	-0.0665283
-0.0650024	0	-0.0650024
-0.0558472	-0.00854492	-0.0643921
-0.0479126	-0.0167847	-0.0646973
-0.0445557	-0.0213623	-0.065918
-0.0463867	-0.0216675	-0.0680542
-0.0531006	-0.0177002	-0.0708008
-0.0613403	-0.0115967	-0.072937
-0.0692749	-0.00488281	-0.0741577
-0.0759888	0.00213623	-0.0738525
-0.0830078	0.00976563	-0.0732422
-0.0909424	0.017395	-0.0735474
-0.0967407	0.0234985	-0.0732422
-0.0976563	0.0262451	-0.0714111
-0.0952148	0.0250244	-0.0701904
-0.0888062	0.0201416	-0.0686646
-0.0796509	0.0125122	-0.0671387
-0.0708008	0.00396729	-0.0668335
-0.062561	-0.00457764	-0.0671387
-0.0543213	-0.0128174	-0.0671387
-0.0473022	-0.0198364	-0.0671387
-0.043335	-0.0238037	-0.0671387
-0.0427246	-0.0244141	-0.0671387
-0.0427246	-0.0228882	-0.0656128
-0.0430298	-0.0192261	-0.0622559
-0.0436401	-0.0140381	-0.0576782
-0.0454712	-0.00762939	-0.0531006
-0.0485229	-0.000610352	-0.0491333
-0.0506592	0.00610352	-0.0445557
-0.0515747	0.0115967	-0.039978
-0.0515747	0.0170898	-0.0344849
-0.050354	0.0219727	-0.0283813
-0.0485229	0.0271606	-0.0213623
-0.0469971	0.0311279	-0.0158691
-0.0439453	0.0323486	-0.0115967
-0.0378418	0.0289917	-0.0088501
-0.0302124	0.022583	-0.00762939
-0.0234985	0.017395	-0.00610352
-0.0216675	0.0161743	-0.00549316
-0.0216675	0.015564	-0.00610352
-0.0195313	0.0112915	-0.00823975
-0.015564	0.00488281	-0.0106812
-0.012207	0.000305176	-0.0119019
-0.0100708	-0.000915527	-0.0109863
-0.00793457	0.000305176	-0.00762939
-0.00488281	0.00305176	-0.00183105
-0.00183105	0.00640869	0.00457764
0.00183105	0.00946045	0.0112915
0.00671387	0.0109863	0.0177002
0.0119019	0.010376	0.0222778
0.0158691	0.00946045	0.0253296
0.0170898	0.0100708	0.0271606
0.0152588	0.0115967	0.0268555
0.0112915	0.0112915	0.022583
0.00579834	0.00915527	0.0149536
-0.000305176	0.00579834	0.00549316
-0.00579834	0.000610352	-0.00518799
-0.00976563	-0.00488281	-0.0146484
-0.0140381	-0.00823975	-0.0222778
-0.0167847	-0.0115967	-0.0283813
-0.0183105	-0.015564	-0.0338745
-0.0177002	-0.0216675	-0.0393677
-0.0146484	-0.0274658	-0.0421143
-0.0119019	-0.0320435	-0.0439453
-0.0100708	-0.0354004	-0.0454712
-0.0109863	-0.0363159	-0.0473022
-0.015564	-0.0344849	-0.0500488
-0.0222778	-0.0305176	-0.0527954
-0.0289917	-0.0253296	-0.0543213
-0.0372314	-0.0189209	-0.0561523
-0.0466919	-0.012207	-0.0588989
-0.0561523	-0.00671387	-0.0628662
-0.0631714	-0.00335693	-0.0665283
-0.0671387	-0.00274658	-0.0698853
-0.0708008	-0.00213623	-0.072937
-0.0747681	-0.00152588	-0.0762939
-0.0765991	-0.00305176	-0.0796509
-0.0747681	-0.00823975	-0.0830078
-0.0701904	-0.015564	-0.0857544
-0.0656128	-0.0228882	-0.088501
-0.0622559	-0.0289917	-0.0912476
-0.06073	-0.032959	-0.093689
-0.0604248	-0.0357056	-0.0961304
-0.0598145	-0.0390625	-0.098877
-0.0582886	-0.0427246	-0.101013
-0.0595093	-0.0436401	-0.103149
-0.0634766	-0.0415039	-0.10498
-0.067749	-0.0396729	-0.107422
-0.0714111	-0.0369263	-0.108337
-0.072937	-0.0341797	-0.107117
-0.072937	-0.0317383	-0.104675
-0.0750732	-0.0274658	-0.102539
-0.0808716	-0.0219727	-0.102844
-0.0878906	-0.0180054	-0.105896
-0.0946045	-0.017395	-0.112
-0.0997925	-0.020752	-0.120544
-0.104675	-0.0274658	-0.132141
-0.109558	-0.0369263	-0.146484
-0.114136	-0.0469971	-0.161133
-0.116577	-0.0546265	-0.171204
-0.113831	-0.0579834	-0.171814
-0.10437	-0.0546265	-0.158997
-0.0823975	-0.0454712	-0.127869
-0.0460815	-0.0302124	-0.0762939
0.00183105	-0.00579834	-0.00396729
0.0613403	0.0265503	0.0878906
0.131531	0.0662231	0.197754
0.210571	0.11322	0.323792
0.297241	0.166626	0.463867
0.39032	0.220337	0.610657
0.483398	0.265503	0.748901
0.567627	0.298157	0.865784
0.637817	0.317078	0.954895
0.688782	0.32196	1.01074
0.716248	0.310974	1.02722
0.718689	0.283508	1.0022
0.694885	0.241089	0.935974
0.644226	0.187073	0.831299
0.565491	0.127563	0.693054
0.462341	0.0674438	0.529785
0.345154	0.0088501	0.354004
0.223999	-0.045166	0.178833
0.107117	-0.0915527	0.015564
0.00213623	-0.128479	-0.126343
-0.0881958	-0.152893	-0.241089
-0.161133	-0.164185	-0.325317
-0.211792	-0.167847	-0.379639
-0.239868	-0.166016	-0.405884
-0.250244	-0.158386	-0.40863
-0.243835	-0.148621	-0.392456
-0.221252	-0.140991	-0.362244
-0.189819	-0.133667	-0.323486
-0.158386	-0.123901	-0.282288
-0.133362	-0.109863	-0.243225
-0.115662	-0.093689	-0.209351
-0.10437	-0.0765991	-0.180969
-0.0991821	-0.0598145	-0.158997
-0.0982666	-0.0454712	-0.143738
-0.101929	-0.0323486	-0.134277
-0.109863	-0.0189209	-0.128784
-0.119019	-0.00762939	-0.126648
-0.126953	-0.000610352	-0.127563
-0.132751	0.00213623	-0.130615
-0.135803	0.00183105	-0.133972
-0.134888	-0.00183105	-0.136719
-0.1297	-0.00854492	-0.138245
-0.121765	-0.0161743	-0.137939
-0.11322	-0.0228882	-0.136108
-0.103455	-0.0289917	-0.132446
-0.0933838	-0.0344849	-0.127869
-0.0854492	-0.038147	-0.123596
-0.0802612	-0.039978	-0.120239
-0.0784302	-0.0393677	-0.117798
-0.0790405	-0.0372314	-0.116272
-0.0802612	-0.0350952	-0.115356
-0.0820923	-0.0326538	-0.114746
-0.085144	-0.0299072	-0.115051
-0.0878906	-0.0274658	-0.115356
-0.0878906	-0.0259399	-0.113831
-0.085144	-0.0253296	-0.110474
-0.0808716	-0.0250244	-0.105896
-0.0772095	-0.0244141	-0.101624
-0.0747681	-0.0228882	-0.0976563
-0.0717163	-0.0222778	-0.0939941
-0.0665283	-0.0231934	-0.0897217
-0.0616455	-0.0238037	-0.0854492
-0.0595093	-0.0222778	-0.0817871
-0.0592041	-0.0192261	-0.0784302
-0.0604248	-0.0161743	-0.0765991
-0.0619507	-0.0131226	-0.0750732
-0.0646973	-0.0106812	-0.0753784
-0.0680542	-0.0088501	-0.0769043
-0.0708008	-0.00671387	-0.0775146
-0.072937	-0.00427246	-0.0772095
-0.0741577	-0.00213623	-0.0762939
-0.0726318	-0.00274658	-0.0753784
-0.0683594	-0.00549316	-0.0738525
-0.0637817	-0.00915527	-0.072937
-0.06073	-0.0109863	-0.0717163
-0.0579834	-0.012207	-0.0701904
-0.0543213	-0.0134277	-0.067749
-0.0494385	-0.015564	-0.0650024
-0.0439453	-0.0180054	-0.0619507
-0.0396729	-0.0195313	-0.0592041
-0.0363159	-0.0198364	-0.0561523
-0.0326538	-0.0201416	-0.0527954
-0.0280762	-0.0210571	-0.0491333
-0.0250244	-0.0213623	-0.0463867
-0.0228882	-0.020752	-0.0436401
-0.0204468	-0.0204468	-0.0408936
-0.017395	-0.0198364	-0.0372314
-0.0140381	-0.0189209	-0.032959
-0.0100708	-0.0189209	-0.0289917
-0.00610352	-0.0204468	-0.0265503
-0.00274658	-0.0231934	-0.0259399
-0.00244141	-0.0241089	-0.0265503
-0.00366211	-0.0234985	-0.0271606
-0.00305176	-0.0228882	-0.0259399
0.000915527	-0.0234985	-0.022583
0.00732422	-0.0262451	-0.0189209
0.0152588	-0.0292969	-0.0140381
0.0234985	-0.0317383	-0.00823975
0.0299072	-0.0323486	-0.00244141
0.0357056	-0.0320435	0.00366211
0.0418091	-0.0311279	0.0106812
0.0491333	-0.0296021	0.0195313
0.0558472	-0.0283813	0.0274658
0.0616455	-0.0283813	0.0332642
0.0671387	-0.0292969	0.0378418
0.0701904	-0.0283813	0.0418091
0.0708008	-0.0253296	0.0454712
0.0717163	-0.0228882	0.0488281
0.0744629	-0.0213623	0.0531006
0.0802612	-0.0204468	0.0598145
0.0860596	-0.0186157	0.0674438
0.0915527	-0.0161743	0.0753784
0.0979614	-0.0149536	0.0830078
0.105896	-0.0152588	0.0906372
0.115051	-0.0167847	0.0982666
0.122681	-0.017395	0.105286
0.126953	-0.0167847	0.110168
0.128784	-0.0161743	0.11261
0.1297	-0.0164795	0.11322
0.131836	-0.0186157	0.11322
0.134277	-0.0210571	0.11322
0.133057	-0.0195313	0.113525
0.1297	-0.015564	0.114136
0.127563	-0.0119019	0.115662
0.126648	-0.00823975	0.118408
0.125427	-0.00396729	0.12146
0.122375	0.00274658	0.125122
0.120239	0.00976563	0.130005
0.119629	0.0158691	0.135498
0.119934	0.0201416	0.140076
0.119019	0.0234985	0.142517
0.116272	0.0268555	0.143127
0.112	0.0296021	0.141602
0.106201	0.0317383	0.137939
0.0991821	0.0326538	0.131836
0.0921631	0.0335693	0.125732
0.0845337	0.0338745	0.118408
0.0756836	0.0350952	0.110779
0.0668335	0.0360107	0.102844
0.0595093	0.0357056	0.0952148
0.0506592	0.0372314	0.0878906
0.0372314	0.043335	0.0805664
0.0216675	0.0518799	0.0735474
0.00549316	0.0598145	0.0653076
-0.0106812	0.0665283	0.0558472
-0.0256348	0.071106	0.0454712
-0.0384521	0.072937	0.0344849
-0.0479126	0.071106	0.0231934
-0.0564575	0.0680542	0.0115967
-0.0650024	0.065918	0.000915527
-0.0714111	0.0619507	-0.00946045
-0.0726318	0.0546265	-0.0180054
-0.0695801	0.0445557	-0.0250244
-0.0650024	0.0335693	-0.0314331
-0.0604248	0.0234985	-0.0369263
-0.0582886	0.0161743	-0.0421143
-0.0585938	0.012207	-0.0463867
-0.0598145	0.00946045	-0.050354
-0.0619507	0.00762939	-0.0543213
-0.0662231	0.00671387	-0.0595093
-0.0708008	0.00518799	-0.0656128
-0.0762939	0.00518799	-0.071106
-0.0823975	0.00701904	-0.0753784
-0.0875854	0.00976563	-0.0778198
-0.0918579	0.0128174	-0.0790405
-0.0952148	0.015564	-0.0796509
-0.0964355	0.0167847	-0.0796509
-0.0973511	0.0177002	-0.0796509
-0.0979614	0.0189209	-0.0790405
-0.0985718	0.0201416	-0.0784302
-0.098877	0.0216675	-0.0772095
-0.0991821	0.022583	-0.0765991
-0.098877	0.0222778	-0.0765991
-0.0976563	0.0198364	-0.0778198
-0.0958252	0.0170898	-0.0787354
-0.0949097	0.0149536	-0.0799561
-0.0942993	0.0140381	-0.0802612
-0.0942993	0.0131226	-0.0811768
-0.0952148	0.0125122	-0.0827026
-0.0973511	0.0131226	-0.0842285
-0.0997925	0.0149536	-0.0848389
-0.101318	0.0170898	-0.0842285
-0.101624	0.0189209	-0.0827026
-0.101929	0.020752	-0.0811768
-0.103149	0.0231934	-0.0799561
-0.105591	0.0268555	-0.0787354
-0.107117	0.0292969	-0.0778198
-0.105591	0.0296021	-0.0759888
-0.101929	0.0289917	-0.072937
-0.0979614	0.027771	-0.0701904
-0.0946045	0.0262451	-0.0683594
-0.0927734	0.0247192	-0.0680542
-0.0909424	0.0228882	-0.0680542
-0.0875854	0.0198364	-0.067749
-0.0845337	0.0161743	-0.0683594
-0.0830078	0.0131226	-0.0698853
-0.0836182	0.0119019	-0.0717163
-0.0857544	0.0128174	-0.072937
-0.088501	0.0149536	-0.0735474
-0.090332	0.0167847	-0.0735474
-0.0906372	0.0183105	-0.0723267
-0.0891113	0.0192261	-0.0698853
-0.0869751	0.0198364	-0.0671387
-0.0842285	0.0201416	-0.0640869
-0.0811768	0.020752	-0.0604248
-0.0784302	0.0219727	-0.0564575
-0.0759888	0.0228882	-0.0531006
-0.0732422	0.0222778	-0.0509644
-0.0708008	0.0210571	-0.0497437
-0.067749	0.0186157	-0.0491333
-0.0631714	0.0146484	-0.0485229
-0.0592041	0.0106812	-0.0485229
-0.0567627	0.00823975	-0.0485229
-0.0543213	0.00640869	-0.0479126
-0.0506592	0.00427246	-0.0463867
-0.0479126	0.00305176	-0.0448608
-0.0469971	0.00274658	-0.0442505
-0.0460815	0.00244141	-0.0436401
-0.045166	0.00213623	-0.0430298
-0.0442505	0.00274658	-0.0415039
-0.0463867	0.00518799	-0.0411987
-0.0521851	0.010376	-0.0418091
-0.0579834	0.0149536	-0.0430298
-0.0613403	0.0164795	-0.0448608
-0.062561	0.0167847	-0.0457764
-0.0634766	0.0180054	-0.0454712
-0.0646973	0.0201416	-0.0445557
-0.0653076	0.0222778	-0.0430298
-0.0650024	0.0238037	-0.0411987
-0.0646973	0.0262451	-0.0384521
-0.0643921	0.0283813	-0.0360107
-0.0631714	0.0286865	-0.0344849
-0.0610352	0.027771	-0.0332642
-0.0588989	0.0250244	-0.0338745
-0.0558472	0.020752	-0.0350952
-0.0518799	0.0143433	-0.0375366
-0.0485229	0.00823975	-0.0402832
-0.0479126	0.00305176	-0.0448608
-0.0485229	-0.00152588	-0.0500488
-0.0509644	-0.00518799	-0.0561523
-0.0540161	-0.00701904	-0.0610352
-0.0561523	-0.00732422	-0.0634766
-0.0592041	-0.00549316	-0.0646973
-0.0628662	-0.00183105	-0.0646973
-0.0643921	0.0012207	-0.0631714
-0.0640869	0.00366211	-0.0604248
-0.0640869	0.00671387	-0.057373
-0.0643921	0.00976563	-0.0546265
-0.0628662	0.010376	-0.0524902
-0.0604248	0.00823975	-0.0521851
-0.0579834	0.00518799	-0.0527954
-0.0564575	0.00183105	-0.0546265
-0.0558472	-0.000610352	-0.0564575
-0.0558472	-0.00335693	-0.0592041
-0.0570679	-0.00579834	-0.0628662
-0.0582886	-0.00915527	-0.0674438
-0.0585938	-0.0125122	-0.071106
-0.0601196	-0.0131226	-0.0732422
-0.0628662	-0.0109863	-0.0738525
-0.0643921	-0.00823975	-0.0726318
-0.0640869	-0.00671387	-0.0708008
-0.0637817	-0.00549316	-0.0692749
-0.0646973	-0.00366211	-0.0683594
-0.0665283	-0.00152588	-0.0680542
-0.067749	0.000915527	-0.0668335
-0.067749	0.00305176	-0.0646973
-0.0662231	0.00396729	-0.0622559
-0.0634766	0.00274658	-0.06073
-0.06073	0.000305176	-0.0604248
-0.0579834	-0.00244141	-0.0604248
-0.0564575	-0.00457764	-0.0610352
-0.055542	-0.00579834	-0.0613403
-0.0537109	-0.00762939	-0.0613403
-0.0518799	-0.00976563	-0.0616455
-0.050354	-0.0119019	-0.0622559
-0.0482178	-0.0152588	-0.0634766
-0.0479126	-0.017395	-0.0653076
-0.055542	-0.0128174	-0.0683594
-0.0692749	-0.00213623	-0.0714111
-0.0802612	0.00701904	-0.0732422
-0.0860596	0.0115967	-0.0744629
-0.0888062	0.0140381	-0.0747681
-0.0915527	0.0167847	-0.0747681
-0.0939941	0.0189209	-0.0750732
-0.09552	0.0189209	-0.0765991
-0.0930786	0.0161743	-0.0769043
-0.0860596	0.0100708	-0.0759888
-0.0753784	0.00152588	-0.0738525
-0.0637817	-0.00793457	-0.0717163
-0.0534058	-0.0167847	-0.0701904
-0.045166	-0.0238037	-0.0689697
-0.0396729	-0.0283813	-0.0680542
-0.038147	-0.0299072	-0.0680542
-0.039978	-0.0283813	-0.0683594
-0.043335	-0.0234985	-0.0668335
-0.0482178	-0.0167847	-0.0650024
-0.0527954	-0.0106812	-0.0634766
-0.0558472	-0.00640869	-0.0622559
-0.057373	-0.00366211	-0.0610352
-0.0579834	-0.00152588	-0.0595093
-0.0582886	-0.000305176	-0.0585938
-0.0576782	0.000305176	-0.057373
-0.0564575	-0.000610352	-0.0570679
-0.0546265	-0.00183105	-0.0564575
-0.0531006	-0.00305176	-0.0561523
-0.0515747	-0.00457764	-0.0561523
-0.050354	-0.00671387	-0.0570679
-0.0494385	-0.00854492	-0.0579834
-0.0491333	-0.00854492	-0.0576782
-0.0494385	-0.00732422	-0.0567627
-0.0491333	-0.00549316	-0.0546265
-0.0488281	-0.00366211	-0.0524902
-0.0494385	-0.0012207	-0.0506592
-0.0500488	0.000305176	-0.0497437
-0.0494385	0	-0.0494385
-0.0479126	-0.00183105	-0.0497437
-0.0469971	-0.00305176	-0.0500488
-0.0476074	-0.00274658	-0.050354
-0.0488281	-0.0012207	-0.0500488
-0.0497437	0.000305176	-0.0494385
-0.0491333	0	-0.0491333
-0.0454712	-0.00396729	-0.0494385
-0.0402832	-0.00915527	-0.0494385
-0.0393677	-0.0088501	-0.0482178
-0.0415039	-0.00366211	-0.045166
-0.0445557	0.00305176	-0.0415039
-0.0476074	0.00915527	-0.0384521
-0.0497437	0.0146484	-0.0350952
-0.0506592	0.0195313	-0.0311279
-0.0509644	0.0250244	-0.0259399
-0.0518799	0.0320435	-0.0198364
-0.0518799	0.038147	-0.0137329
-0.0497437	0.0421143	-0.00762939
-0.0460815	0.0439453	-0.00213623
-0.0411987	0.0445557	0.00335693
-0.03479	0.0430298	0.00823975
-0.0256348	0.0378418	0.012207
-0.0134277	0.0283813	0.0149536
-0.000915527	0.017395	0.0164795
0.00915527	0.00854492	0.0177002
0.017395	0.00183105	0.0192261
0.0247192	-0.00427246	0.0204468
0.0317383	-0.00915527	0.022583
0.0378418	-0.0125122	0.0253296
0.0415039	-0.0143433	0.0271606
0.0424194	-0.0143433	0.0280762
0.0405884	-0.0112915	0.0292969
0.0366211	-0.00671387	0.0299072
0.0317383	-0.00274658	0.0289917
0.0265503	0.000305176	0.0268555
0.0219727	0.000610352	0.022583
0.0180054	-0.00152588	0.0164795
0.0146484	-0.00518799	0.00946045
0.0115967	-0.00976563	0.00183105
0.00732422	-0.0137329	-0.00640869
0.00183105	-0.0170898	-0.0152588
-0.00335693	-0.020752	-0.0241089
-0.00701904	-0.0247192	-0.0317383
-0.00976563	-0.0274658	-0.0372314
-0.0134277	-0.0286865	-0.0421143
-0.0177002	-0.0274658	-0.045166
-0.0213623	-0.0253296	-0.0466919
-0.0256348	-0.0219727	-0.0476074
-0.0314331	-0.017395	-0.0488281
-0.0350952	-0.0137329	-0.0488281
-0.0366211	-0.0115967	-0.0482178
-0.0369263	-0.010376	-0.0473022
-0.0387573	-0.0100708	-0.0488281
-0.0418091	-0.0112915	-0.0531006
-0.0448608	-0.0143433	-0.0592041
-0.0476074	-0.0183105	-0.065918
-0.0497437	-0.022583	-0.0723267
-0.0521851	-0.0265503	-0.0787354
-0.0543213	-0.0302124	-0.0845337
-0.0543213	-0.0338745	-0.0881958
-0.0543213	-0.0366211	-0.0909424
-0.0588989	-0.0341797	-0.0930786
-0.0656128	-0.0296021	-0.0952148
-0.0692749	-0.0271606	-0.0964355
-0.0698853	-0.0265503	-0.0964355
-0.0704956	-0.0250244	-0.09552
-0.0726318	-0.022583	-0.0952148
-0.0753784	-0.0204468	-0.0958252
-0.0759888	-0.0201416	-0.0961304
-0.0741577	-0.0216675	-0.0958252
-0.0726318	-0.0234985	-0.0961304
-0.0726318	-0.0244141	-0.0970459
-0.0726318	-0.0253296	-0.0979614
-0.0723267	-0.027771	-0.100098
-0.0720215	-0.0320435	-0.104065
-0.0747681	-0.0360107	-0.110779
-0.0799561	-0.0415039	-0.12146
-0.0854492	-0.050354	-0.135803
-0.0894165	-0.0610352	-0.150452
-0.0924683	-0.0698853	-0.162354
-0.0946045	-0.072937	-0.167542
-0.0918579	-0.071106	-0.162964
-0.0805664	-0.0640869	-0.144653
-0.0588989	-0.0506592	-0.109558
-0.0271606	-0.0283813	-0.055542
0.015564	0.00305176	0.0186157
0.0708008	0.0402832	0.111084
0.13855	0.0814819	0.220032
0.218201	0.127258	0.345459
0.306396	0.178223	0.484619
0.400391	0.230103	0.630493
0.4953	0.273438	0.768738
0.584412	0.303345	0.887756
0.659485	0.320435	0.979919
0.714722	0.325623	1.04034
0.745239	0.317993	1.06323
0.750427	0.294189	1.04462
0.72937	0.252991	0.982361
0.679016	0.198669	0.877686
0.598755	0.13855	0.737305
0.493469	0.0765991	0.570068
0.373535	0.0143433	0.387878
0.249023	-0.0454712	0.203552
0.129089	-0.0982666	0.0308228
0.0195313	-0.137634	-0.118103
-0.0744629	-0.161438	-0.235901
-0.1474	-0.172424	-0.319824
-0.197754	-0.173645	-0.371399
-0.224915	-0.167847	-0.392761
-0.231628	-0.15625	-0.387878
-0.223999	-0.13916	-0.363159
-0.205383	-0.119324	-0.324707
-0.180359	-0.098877	-0.279236
-0.154419	-0.0790405	-0.233459
-0.131226	-0.0613403	-0.192566
-0.112	-0.0466919	-0.158691
-0.0985718	-0.03479	-0.133362
-0.0921631	-0.0244141	-0.116577
-0.0921631	-0.0146484	-0.106812
-0.0946045	-0.00640869	-0.101013
-0.0973511	-0.0012207	-0.0985718
-0.0982666	0.000610352	-0.0976563
-0.0961304	-0.0012207	-0.0973511
-0.093689	-0.00488281	-0.0985718
-0.0915527	-0.0088501	-0.100403
-0.0897217	-0.0128174	-0.102539
-0.0875854	-0.015564	-0.103149
-0.0842285	-0.017395	-0.101624
-0.0787354	-0.0186157	-0.0973511
-0.0726318	-0.0198364	-0.0924683
-0.0686646	-0.0195313	-0.0881958
-0.0674438	-0.017395	-0.0848389
-0.0674438	-0.0146484	-0.0820923
-0.0674438	-0.0119019	-0.0793457
-0.0680542	-0.0088501	-0.0769043
-0.0683594	-0.00640869	-0.0747681
-0.0680542	-0.00579834	-0.0738525
-0.0671387	-0.00701904	-0.0741577
-0.0668335	-0.00793457	-0.0747681
-0.0683594	-0.00732422	-0.0756836
-0.0695801	-0.00732422	-0.0769043
-0.0674438	-0.00915527	-0.0765991
-0.062561	-0.012207	-0.0747681
-0.0592041	-0.0137329	-0.072937
-0.0570679	-0.0125122	-0.0695801
-0.0546265	-0.010376	-0.0650024
-0.0515747	-0.00854492	-0.0601196
-0.0476074	-0.00640869	-0.0540161
-0.0436401	-0.00396729	-0.0476074
-0.0415039	-0.00152588	-0.0430298
-0.0415039	0.000915527	-0.0405884
-0.0408936	0.00213623	-0.0387573
-0.0387573	0.0012207	-0.0375366
-0.0363159	-0.000305176	-0.0366211
-0.0354004	-0.0012207	-0.0366211
-0.0341797	-0.00335693	-0.0375366
-0.0296021	-0.00854492	-0.038147
-0.0256348	-0.0137329	-0.0393677
-0.0259399	-0.0140381	-0.039978
-0.0302124	-0.00946045	-0.0396729
-0.0344849	-0.00396729	-0.0384521
-0.0360107	-0.000915527	-0.0369263
-0.0363159	0.0012207	-0.0350952
-0.0378418	0.00396729	-0.0338745
-0.0405884	0.00793457	-0.0326538
-0.0424194	0.0106812	-0.0317383
-0.0411987	0.0109863	-0.0302124
-0.0390625	0.0088501	-0.0302124
-0.0357056	0.00640869	-0.0292969
-0.0299072	0.00305176	-0.0268555
-0.0219727	-0.00152588	-0.0234985
-0.0137329	-0.00610352	-0.0198364
-0.00762939	-0.00915527	-0.0167847
-0.00396729	-0.00976563	-0.0137329
-0.00213623	-0.00823975	-0.010376
-0.0012207	-0.00579834	-0.00701904
0.000610352	-0.00457764	-0.00396729
0.00305176	-0.00518799	-0.00213623
0.00518799	-0.00732422	-0.00213623
0.0088501	-0.010376	-0.00152588
0.0146484	-0.0140381	0.000610352
0.0234985	-0.0189209	0.00457764
0.0354004	-0.0256348	0.00976563
0.0479126	-0.0320435	0.0158691
0.0570679	-0.0354004	0.0216675
0.062561	-0.0350952	0.0274658
0.0674438	-0.032959	0.0344849
0.0726318	-0.0302124	0.0424194
0.0765991	-0.0268555	0.0497437
0.078125	-0.022583	0.055542
0.0769043	-0.017395	0.0595093
0.0747681	-0.0119019	0.0628662
0.0753784	-0.00732422	0.0680542
0.0790405	-0.00457764	0.0744629
0.0848389	-0.00396729	0.0808716
0.0918579	-0.00427246	0.0875854
0.0979614	-0.00366211	0.0942993
0.106201	-0.00457764	0.101624
0.118408	-0.00915527	0.109253
0.131531	-0.0146484	0.116882
0.144348	-0.0198364	0.124512
0.15625	-0.0256348	0.130615
0.161743	-0.0271606	0.134583
0.160522	-0.0238037	0.136719
0.158081	-0.0189209	0.13916
0.15625	-0.0143433	0.141907
0.152893	-0.00823975	0.144653
0.148926	0	0.148926
0.143738	0.00976563	0.153503
0.137024	0.0216675	0.158691
0.13031	0.0332642	0.163574
0.125427	0.0427246	0.168152
0.12146	0.0497437	0.171204
0.118408	0.0543213	0.172729
0.116272	0.0564575	0.172729
0.114746	0.057373	0.172119
0.113525	0.0567627	0.170288
0.112	0.0561523	0.168152
0.109253	0.0552368	0.16449
0.104675	0.0549316	0.159607
0.0979614	0.0549316	0.152893
0.0915527	0.0540161	0.145569
0.0857544	0.0524902	0.138245
0.0790405	0.0518799	0.13092
0.0683594	0.0540161	0.122375
0.0567627	0.0567627	0.113525
0.0473022	0.0579834	0.105286
0.0402832	0.0567627	0.0970459
0.0335693	0.0546265	0.0881958
0.0234985	0.0546265	0.078125
0.0112915	0.055542	0.0668335
0.000305176	0.0561523	0.0564575
-0.00915527	0.055542	0.0463867
-0.0167847	0.0540161	0.0372314
-0.0241089	0.0521851	0.0280762
-0.0305176	0.0488281	0.0183105
-0.0360107	0.0442505	0.00823975
-0.0411987	0.0396729	-0.00152588
-0.0463867	0.0363159	-0.0100708
-0.050354	0.032959	-0.017395
-0.0546265	0.0308228	-0.0238037
-0.0592041	0.0296021	-0.0296021
-0.06073	0.0271606	-0.0335693
-0.0592041	0.0222778	-0.0369263
-0.057373	0.0170898	-0.0402832
-0.0598145	0.0146484	-0.045166
-0.0650024	0.0152588	-0.0497437
-0.0708008	0.0170898	-0.0537109
-0.0759888	0.0195313	-0.0564575
-0.0799561	0.0219727	-0.0579834
-0.0830078	0.0247192	-0.0582886
-0.0845337	0.0274658	-0.0570679
-0.0854492	0.0305176	-0.0549316
-0.0866699	0.0338745	-0.0527954
-0.0866699	0.0363159	-0.050354
-0.0839233	0.0363159	-0.0476074
-0.0796509	0.03479	-0.0448608
-0.0762939	0.0326538	-0.0436401
-0.0741577	0.0302124	-0.0439453
-0.0726318	0.0262451	-0.0463867
-0.0732422	0.0213623	-0.0518799
-0.0753784	0.0167847	-0.0585938
-0.0790405	0.0128174	-0.0662231
-0.0830078	0.00976563	-0.0732422
-0.0869751	0.00701904	-0.0799561
-0.0924683	0.00701904	-0.0854492
-0.0997925	0.0100708	-0.0897217
-0.106506	0.0152588	-0.0912476
-0.110474	0.0201416	-0.090332
-0.110474	0.0234985	-0.0869751
-0.106506	0.0238037	-0.0827026
-0.100403	0.0228882	-0.0775146
-0.0942993	0.0216675	-0.0726318
-0.088501	0.020752	-0.067749
-0.0817871	0.0192261	-0.062561
-0.0744629	0.0164795	-0.0579834
-0.0683594	0.0131226	-0.0552368
-0.0640869	0.010376	-0.0537109
-0.0622559	0.00793457	-0.0543213
-0.0619507	0.00610352	-0.0558472
-0.0637817	0.00640869	-0.057373
-0.0665283	0.0088501	-0.0576782
-0.0683594	0.0115967	-0.0567627
-0.0692749	0.0137329	-0.055542
-0.0686646	0.0143433	-0.0543213
-0.0668335	0.0143433	-0.0524902
-0.0640869	0.0137329	-0.050354
-0.0610352	0.0115967	-0.0494385
-0.055542	0.00762939	-0.0479126
-0.0497437	0.00396729	-0.0457764
-0.0476074	0.00366211	-0.0439453
-0.0488281	0.00610352	-0.0427246
-0.050354	0.00915527	-0.0411987
-0.0515747	0.0125122	-0.0390625
-0.0537109	0.0158691	-0.0378418
-0.057373	0.0195313	-0.0378418
-0.06073	0.0234985	-0.0372314
-0.0619507	0.0265503	-0.0354004
-0.0604248	0.027771	-0.0326538
-0.057373	0.0271606	-0.0302124
-0.0546265	0.0259399	-0.0286865
-0.0537109	0.0250244	-0.0286865
-0.0515747	0.0222778	-0.0292969
-0.0479126	0.0180054	-0.0299072
-0.0436401	0.0131226	-0.0305176
-0.0402832	0.00823975	-0.0320435
-0.0390625	0.00610352	-0.032959
-0.0402832	0.00732422	-0.032959
-0.0430298	0.00976563	-0.0332642
-0.045166	0.0112915	-0.0338745
-0.0469971	0.0131226	-0.0338745
-0.0482178	0.0158691	-0.0323486
-0.0482178	0.0189209	-0.0292969
-0.0479126	0.0210571	-0.0268555
-0.0488281	0.0231934	-0.0256348
-0.0497437	0.0250244	-0.0247192
-0.0491333	0.0247192	-0.0244141
-0.0460815	0.0219727	-0.0241089
-0.0421143	0.0170898	-0.0250244
-0.0408936	0.0134277	-0.0274658
-0.0421143	0.0115967	-0.0305176
-0.043335	0.00946045	-0.0338745
-0.0466919	0.00976563	-0.0369263
-0.0534058	0.0134277	-0.039978
-0.0588989	0.0170898	-0.0418091
-0.0604248	0.0183105	-0.0421143
-0.0585938	0.0186157	-0.039978
-0.0570679	0.0192261	-0.0378418
-0.0576782	0.0213623	-0.0363159
-0.0592041	0.0241089	-0.0350952
-0.0582886	0.0244141	-0.0338745
-0.0531006	0.0213623	-0.0317383
-0.0445557	0.0146484	-0.0299072
-0.0372314	0.00732422	-0.0299072
-0.0341797	0.00213623	-0.0320435
-0.0335693	-0.00213623	-0.0357056
-0.0335693	-0.00610352	-0.0396729
-0.0338745	-0.0088501	-0.0427246
-0.0369263	-0.00946045	-0.0463867
-0.0415039	-0.00915527	-0.0506592
-0.0463867	-0.00854492	-0.0549316
-0.0491333	-0.00823975	-0.057373
-0.0491333	-0.00915527	-0.0582886
-0.0476074	-0.0100708	-0.0576782
-0.0469971	-0.00976563	-0.0567627
-0.0463867	-0.00793457	-0.0543213
-0.0460815	-0.00579834	-0.0518799
-0.0454712	-0.00396729	-0.0494385
-0.043335	-0.00274658	-0.0460815
-0.0396729	-0.00274658	-0.0424194
-0.0378418	-0.00152588	-0.0393677
-0.0393677	0.00152588	-0.0378418
-0.043335	0.00579834	-0.0375366
-0.0482178	0.0100708	-0.038147
-0.0540161	0.0143433	-0.0396729
-0.0598145	0.0170898	-0.0427246
-0.0650024	0.0180054	-0.0469971
-0.0692749	0.0180054	-0.0512695
-0.0717163	0.0170898	-0.0546265
-0.0708008	0.0149536	-0.0558472
-0.0680542	0.012207	-0.0558472
-0.0643921	0.00854492	-0.0558472
-0.0592041	0.00335693	-0.0558472
-0.0537109	-0.0012207	-0.0549316
-0.0479126	-0.00518799	-0.0531006
-0.0436401	-0.00671387	-0.050354
-0.0418091	-0.00579834	-0.0476074
-0.0405884	-0.00488281	-0.0454712
-0.0387573	-0.00518799	-0.0439453
-0.0375366	-0.00518799	-0.0427246
-0.0384521	-0.00366211	-0.0421143
-0.0402832	-0.00244141	-0.0427246
-0.043335	-0.00152588	-0.0448608
-0.0469971	0.000305176	-0.0466919
-0.0497437	0.00274658	-0.0469971
-0.0506592	0.00488281	-0.0457764
-0.0506592	0.00579834	-0.0448608
-0.0512695	0.00579834	-0.0454712
-0.0521851	0.00610352	-0.0460815
-0.0524902	0.00701904	-0.0454712
-0.0527954	0.00823975	-0.0445557
-0.0531006	0.00854492	-0.0445557
-0.0540161	0.0088501	-0.045166
-0.0546265	0.0088501	-0.0457764
-0.0524902	0.00671387	-0.0457764
-0.0479126	0.00366211	-0.0442505
-0.0430298	0.000610352	-0.0424194
-0.0390625	-0.00152588	-0.0405884
-0.03479	-0.00396729	-0.0387573
-0.0323486	-0.00518799	-0.0375366
-0.0326538	-0.00518799	-0.0378418
-0.0341797	-0.00396729	-0.038147
-0.0363159	-0.00152588	-0.0378418
-0.0378418	0.000915527	-0.0369263
-0.0402832	0.00274658	-0.0375366
-0.0445557	0.00457764	-0.039978
-0.0491333	0.00610352	-0.0430298
-0.0531006	0.00701904	-0.0460815
-0.0561523	0.00671387	-0.0494385
-0.0570679	0.00488281	-0.0521851
-0.0561523	0.00183105	-0.0543213
-0.0534058	-0.00152588	-0.0549316
-0.0506592	-0.00518799	-0.0558472
-0.0500488	-0.00701904	-0.0570679
-0.0524902	-0.00610352	-0.0585938
-0.0543213	-0.00488281	-0.0592041
-0.0540161	-0.00427246	-0.0582886
-0.0531006	-0.00274658	-0.0558472
-0.0537109	-0.000305176	-0.0540161
-0.0549316	0.00183105	-0.0531006
-0.0552368	0.00213623	-0.0531006
-0.0549316	0.0012207	-0.0537109
-0.0552368	0.0012207	-0.0540161
-0.0567627	0.00244141	-0.0543213
-0.0582886	0.00366211	-0.0546265
-0.0598145	0.00427246	-0.055542
-0.0613403	0.00396729	-0.057373
-0.0616455	0.00366211	-0.0579834
-0.0616455	0.00396729	-0.0576782
-0.0619507	0.00610352	-0.0558472
-0.0619507	0.00854492	-0.0534058
-0.0613403	0.010376	-0.0509644
-0.0592041	0.0109863	-0.0482178
-0.0549316	0.00976563	-0.045166
-0.050354	0.00793457	-0.0424194
-0.0466919	0.00671387	-0.039978
-0.045166	0.00701904	-0.038147
-0.045166	0.00823975	-0.0369263
-0.0466919	0.010376	-0.0363159
-0.0482178	0.0140381	-0.0341797
-0.0491333	0.0180054	-0.0311279
-0.0494385	0.022583	-0.0268555
-0.0491333	0.0268555	-0.0222778
-0.0479126	0.0299072	-0.0180054
-0.0454712	0.0311279	-0.0143433
-0.0415039	0.0314331	-0.0100708
-0.0357056	0.0299072	-0.00579834
-0.0271606	0.0256348	-0.00152588
-0.0183105	0.0210571	0.00274658
-0.00976563	0.0152588	0.00549316
-0.000610352	0.00823975	0.00762939
0.00823975	0.0012207	0.00946045
0.0161743	-0.00427246	0.0119019
0.022583	-0.00701904	0.015564
0.0280762	-0.00549316	0.022583
0.0317383	-0.00183105	0.0299072
0.0341797	0.00274658	0.0369263
0.0350952	0.00701904	0.0421143
0.0326538	0.0125122	0.045166
0.0265503	0.0195313	0.0460815
0.0186157	0.0265503	0.045166
0.0106812	0.0317383	0.0424194
0.00427246	0.0338745	0.038147
-0.000305176	0.0323486	0.0320435
-0.00366211	0.0274658	0.0238037
-0.00640869	0.020752	0.0143433
-0.00701904	0.0119019	0.00488281
-0.00427246	0.000915527	-0.00335693
-0.000915527	-0.00854492	-0.00946045
0.00213623	-0.0161743	-0.0140381
0.00427246	-0.0222778	-0.0180054
0.00457764	-0.0274658	-0.0228882
0.00274658	-0.0305176	-0.027771
-0.000915527	-0.0323486	-0.0332642
-0.00640869	-0.0326538	-0.0390625
-0.0149536	-0.0299072	-0.0448608
-0.0274658	-0.0231934	-0.0506592
-0.0390625	-0.0161743	-0.0552368
-0.0457764	-0.0134277	-0.0592041
-0.0488281	-0.0128174	-0.0616455
-0.0512695	-0.0109863	-0.0622559
-0.0537109	-0.0088501	-0.062561
-0.0531006	-0.00946045	-0.062561
-0.050354	-0.0125122	-0.0628662
-0.0491333	-0.0146484	-0.0637817
-0.0509644	-0.0146484	-0.0656128
-0.0537109	-0.0152588	-0.0689697
-0.055542	-0.0170898	-0.0726318
-0.0598145	-0.0180054	-0.0778198
-0.0665283	-0.0164795	-0.0830078
-0.0732422	-0.0140381	-0.0872803
-0.0793457	-0.0112915	-0.0906372
-0.0839233	-0.0100708	-0.0939941
-0.0848389	-0.010376	-0.0952148
-0.0839233	-0.0109863	-0.0949097
-0.0820923	-0.0128174	-0.0949097
-0.0762939	-0.0170898	-0.0933838
-0.0668335	-0.0247192	-0.0915527
-0.0570679	-0.032959	-0.0900269
-0.0506592	-0.0375366	-0.0881958
-0.0494385	-0.0378418	-0.0872803
-0.0518799	-0.0363159	-0.0881958
-0.0549316	-0.0357056	-0.0906372
-0.0582886	-0.0372314	-0.09552
-0.0634766	-0.0402832	-0.10376
-0.071106	-0.0448608	-0.115967
-0.0814819	-0.0491333	-0.130615
-0.0918579	-0.0534058	-0.145264
-0.100403	-0.0564575	-0.15686
-0.106201	-0.0561523	-0.162354
-0.104065	-0.0521851	-0.15625
-0.0900269	-0.0454712	-0.135498
-0.0631714	-0.0350952	-0.0982666
-0.0241089	-0.0170898	-0.0411987
0.0253296	0.00915527	0.0344849
0.0854492	0.0424194	0.127869
0.15686	0.0811768	0.238037
0.240479	0.125427	0.365906
0.335388	0.172729	0.508118
0.435181	0.217896	0.653076
0.529785	0.255432	0.785217
0.614014	0.281677	0.895691
0.683289	0.296326	0.979614
0.733337	0.297546	1.03088
0.759888	0.283203	1.04309
0.760193	0.25177	1.01196
0.732117	0.205078	0.937195
0.674744	0.148926	0.823669
0.585632	0.0915527	0.677185
0.470886	0.0350952	0.505981
0.345459	-0.022583	0.322876
0.220642	-0.0772095	0.143433
0.104065	-0.123901	-0.0198364
0.000610352	-0.157471	-0.15686
-0.0881958	-0.175476	-0.263672
-0.159302	-0.179443	-0.338745
-0.208435	-0.17334	-0.381775
-0.23407	-0.162964	-0.397034
-0.237122	-0.151367	-0.388489
-0.222778	-0.139771	-0.362549
-0.198364	-0.126953	-0.325317
-0.170288	-0.112305	-0.282593
-0.144348	-0.0970459	-0.241394
-0.123291	-0.0823975	-0.205688
-0.108032	-0.0689697	-0.177002
-0.0979614	-0.0570679	-0.155029
-0.0924683	-0.0466919	-0.13916
-0.0897217	-0.0378418	-0.127563
-0.0875854	-0.0311279	-0.118713
-0.0857544	-0.0274658	-0.11322
-0.085144	-0.0259399	-0.111084
-0.0869751	-0.0244141	-0.111389
-0.0897217	-0.0244141	-0.114136
-0.0915527	-0.0244141	-0.115967
-0.0915527	-0.0247192	-0.116272
-0.0897217	-0.0250244	-0.114746
-0.0869751	-0.0250244	-0.112
-0.0842285	-0.0238037	-0.108032
-0.0817871	-0.0216675	-0.103455
-0.0796509	-0.0192261	-0.098877
-0.0775146	-0.017395	-0.0949097
-0.0738525	-0.0170898	-0.0909424
-0.0704956	-0.0180054	-0.088501
-0.0686646	-0.0186157	-0.0872803
-0.0680542	-0.0201416	-0.0881958
-0.0680542	-0.0222778	-0.090332
-0.0689697	-0.0234985	-0.0924683
-0.0704956	-0.0238037	-0.0942993
-0.0735474	-0.0228882	-0.0964355
-0.0759888	-0.0219727	-0.0979614
-0.0778198	-0.020752	-0.0985718
-0.0778198	-0.0192261	-0.0970459
-0.0756836	-0.017395	-0.0930786
-0.0720215	-0.0158691	-0.0878906
-0.0680542	-0.0149536	-0.0830078
-0.0640869	-0.0146484	-0.0787354
-0.0582886	-0.0161743	-0.0744629
-0.0531006	-0.0180054	-0.071106
-0.0512695	-0.0177002	-0.0689697
-0.0509644	-0.017395	-0.0683594
-0.0476074	-0.0204468	-0.0680542
-0.0418091	-0.0256348	-0.0674438
-0.0387573	-0.0286865	-0.0674438
-0.0390625	-0.0286865	-0.067749
-0.0387573	-0.0286865	-0.0674438
-0.0372314	-0.0299072	-0.0671387
-0.0360107	-0.0308228	-0.0668335
-0.0350952	-0.0308228	-0.065918
-0.0341797	-0.0296021	-0.0637817
-0.0335693	-0.0271606	-0.06073
-0.0335693	-0.0244141	-0.0579834
-0.0335693	-0.0219727	-0.055542
-0.0338745	-0.0189209	-0.0527954
-0.0341797	-0.0158691	-0.0500488
-0.032959	-0.0146484	-0.0476074
-0.0305176	-0.0149536	-0.0454712
-0.0262451	-0.0158691	-0.0421143
-0.0198364	-0.0180054	-0.0378418
-0.0119019	-0.020752	-0.0326538
-0.00488281	-0.022583	-0.0274658
0.0012207	-0.0238037	-0.022583
0.00671387	-0.0244141	-0.0177002
0.00976563	-0.0238037	-0.0140381
0.010376	-0.0216675	-0.0112915
0.00946045	-0.0189209	-0.00946045
0.0088501	-0.0164795	-0.00762939
0.0106812	-0.0137329	-0.00305176
0.0134277	-0.0112915	0.00213623
0.0167847	-0.0100708	0.00671387
0.0198364	-0.00915527	0.0106812
0.0231934	-0.00915527	0.0140381
0.0286865	-0.010376	0.0183105
0.0369263	-0.0131226	0.0238037
0.0457764	-0.0170898	0.0286865
0.0540161	-0.0213623	0.0326538
0.0610352	-0.0259399	0.0350952
0.0674438	-0.0302124	0.0372314
0.072937	-0.0338745	0.0390625
0.078125	-0.0372314	0.0408936
0.0823975	-0.0390625	0.043335
0.083313	-0.0372314	0.0460815
0.0814819	-0.0326538	0.0488281
0.0796509	-0.0262451	0.0534058
0.0799561	-0.0201416	0.0598145
0.0842285	-0.0164795	0.067749
0.0891113	-0.0134277	0.0756836
0.0933838	-0.00976563	0.0836182
0.100098	-0.00762939	0.0924683
0.109253	-0.00823975	0.101013
0.120239	-0.0112915	0.108948
0.130005	-0.0146484	0.115356
0.13916	-0.0180054	0.121155
0.14801	-0.020752	0.127258
0.153503	-0.0210571	0.132446
0.15564	-0.0189209	0.136719
0.153503	-0.0149536	0.13855
0.148926	-0.00915527	0.139771
0.142822	-0.00244141	0.140381
0.137939	0.00305176	0.140991
0.133667	0.00732422	0.140991
0.129089	0.0115967	0.140686
0.126038	0.0146484	0.140686
0.123901	0.0164795	0.140381
0.122375	0.0192261	0.141602
0.119934	0.022583	0.142517
0.115356	0.0262451	0.141602
0.109253	0.0302124	0.139465
0.101624	0.0357056	0.137329
0.0924683	0.0436401	0.136108
0.0827026	0.0515747	0.134277
0.0735474	0.0582886	0.131836
0.0650024	0.0628662	0.127869
0.0579834	0.0646973	0.122681
0.0527954	0.0643921	0.117188
0.0479126	0.0619507	0.109863
0.0418091	0.0585938	0.100403
0.03479	0.0549316	0.0897217
0.027771	0.0509644	0.0787354
0.0198364	0.0466919	0.0665283
0.00976563	0.043335	0.0531006
-0.0012207	0.0415039	0.0402832
-0.0128174	0.0405884	0.027771
-0.0244141	0.0408936	0.0164795
-0.03479	0.0411987	0.00640869
-0.0427246	0.0405884	-0.00213623
-0.0479126	0.0390625	-0.0088501
-0.0512695	0.0357056	-0.015564
-0.0531006	0.0323486	-0.020752
-0.0540161	0.0292969	-0.0247192
-0.055542	0.0262451	-0.0292969
-0.0582886	0.0219727	-0.0363159
-0.0622559	0.0177002	-0.0445557
-0.0662231	0.0140381	-0.0521851
-0.0686646	0.00976563	-0.0588989
-0.0704956	0.00640869	-0.0640869
-0.0741577	0.00488281	-0.0692749
-0.0790405	0.00457764	-0.0744629
-0.0836182	0.00366211	-0.0799561
-0.0866699	0.00305176	-0.0836182
-0.0878906	0.00213623	-0.0857544
-0.0878906	0.00183105	-0.0860596
-0.0891113	0.00396729	-0.085144
-0.0924683	0.00732422	-0.085144
-0.093689	0.00854492	-0.085144
-0.0921631	0.00793457	-0.0842285
-0.0909424	0.00762939	-0.083313
-0.0906372	0.00823975	-0.0823975
-0.0897217	0.00854492	-0.0811768
-0.0869751	0.00671387	-0.0802612
-0.0842285	0.00488281	-0.0793457
-0.0830078	0.00427246	-0.0787354
-0.0827026	0.00427246	-0.0784302
-0.0827026	0.00457764	-0.078125
-0.0823975	0.00457764	-0.0778198
-0.0827026	0.00427246	-0.0784302
-0.083313	0.00457764	-0.0787354
-0.0863647	0.00610352	-0.0802612
-0.0906372	0.00946045	-0.0811768
-0.0939941	0.0119019	-0.0820923
-0.0942993	0.0134277	-0.0808716
-0.0930786	0.0146484	-0.0784302
-0.0918579	0.0164795	-0.0753784
-0.0912476	0.0177002	-0.0735474
-0.090332	0.0180054	-0.0723267
-0.0875854	0.0161743	-0.0714111
-0.0817871	0.0112915	-0.0704956
-0.0759888	0.00701904	-0.0689697
-0.0738525	0.00579834	-0.0680542
-0.0741577	0.00701904	-0.0671387
-0.0747681	0.00762939	-0.0671387
-0.0753784	0.00854492	-0.0668335
-0.0784302	0.0115967	-0.0668335
-0.0827026	0.015564	-0.0671387
-0.0854492	0.0183105	-0.0671387
-0.0860596	0.020752	-0.0653076
-0.0866699	0.022583	-0.0640869
-0.0866699	0.022583	-0.0640869
-0.085144	0.0210571	-0.0640869
-0.0817871	0.0180054	-0.0637817
-0.0772095	0.0146484	-0.062561
-0.0717163	0.0106812	-0.0610352
-0.0653076	0.00671387	-0.0585938
-0.0585938	0.00305176	-0.055542
-0.0531006	0.000915527	-0.0521851
-0.0488281	0	-0.0488281
-0.0479126	0.00244141	-0.0454712
-0.0482178	0.00610352	-0.0421143
-0.0473022	0.00854492	-0.0387573
-0.0463867	0.010376	-0.0360107
-0.045166	0.0109863	-0.0341797
-0.0442505	0.010376	-0.0338745
-0.0448608	0.0106812	-0.0341797
-0.0473022	0.0125122	-0.03479
-0.0515747	0.015564	-0.0360107
-0.0531006	0.0167847	-0.0363159
-0.0518799	0.0161743	-0.0357056
-0.0512695	0.015564	-0.0357056
-0.0518799	0.0158691	-0.0360107
-0.0518799	0.0149536	-0.0369263
-0.0506592	0.0137329	-0.0369263
-0.0500488	0.0134277	-0.0366211
-0.0485229	0.012207	-0.0363159
-0.0466919	0.00946045	-0.0372314
-0.0448608	0.00610352	-0.0387573
-0.0430298	0.00335693	-0.0396729
-0.0411987	0.00152588	-0.0396729
-0.0408936	0.000915527	-0.039978
-0.043335	0.00183105	-0.0415039
-0.0473022	0.00396729	-0.043335
-0.0515747	0.00610352	-0.0454712
-0.0543213	0.00762939	-0.0466919
-0.0552368	0.00793457	-0.0473022
-0.0549316	0.00732422	-0.0476074
-0.0549316	0.00671387	-0.0482178
-0.0549316	0.00579834	-0.0491333
-0.0537109	0.00396729	-0.0497437
-0.0500488	0.0012207	-0.0488281
-0.0445557	-0.00213623	-0.0466919
-0.0390625	-0.00549316	-0.0445557
-0.0338745	-0.00854492	-0.0424194
-0.0292969	-0.0119019	-0.0411987
-0.0262451	-0.0134277	-0.0396729
-0.0247192	-0.0128174	-0.0375366
-0.0244141	-0.0112915	-0.0357056
-0.0256348	-0.0088501	-0.0344849
-0.0289917	-0.00610352	-0.0350952
-0.0335693	-0.00244141	-0.0360107
-0.0384521	0.00183105	-0.0366211
-0.043335	0.00549316	-0.0378418
-0.0476074	0.00823975	-0.0393677
-0.050354	0.00946045	-0.0408936
-0.050354	0.0088501	-0.0415039
-0.0500488	0.00823975	-0.0418091
-0.0509644	0.00915527	-0.0418091
-0.0506592	0.00976563	-0.0408936
-0.0476074	0.0100708	-0.0375366
-0.0430298	0.00946045	-0.0335693
-0.0387573	0.00854492	-0.0302124
-0.0384521	0.0106812	-0.027771
-0.0427246	0.0167847	-0.0259399
-0.0473022	0.0234985	-0.0238037
-0.050354	0.0280762	-0.0222778
-0.0512695	0.0286865	-0.022583
-0.0515747	0.0268555	-0.0247192
-0.0524902	0.0238037	-0.0286865
-0.0543213	0.0219727	-0.0323486
-0.055542	0.0204468	-0.0350952
-0.055542	0.0177002	-0.0378418
-0.0537109	0.0128174	-0.0408936
-0.050354	0.00762939	-0.0427246
-0.0466919	0.00335693	-0.043335
-0.045166	0.000915527	-0.0442505
-0.0448608	-0.000305176	-0.045166
-0.0442505	-0.0012207	-0.0454712
-0.0454712	-0.000305176	-0.0457764
-0.0479126	0.00213623	-0.0457764
-0.0506592	0.00549316	-0.045166
-0.0527954	0.00793457	-0.0448608
-0.0531006	0.0088501	-0.0442505
-0.0524902	0.00854492	-0.0439453
-0.0524902	0.0088501	-0.0436401
-0.0524902	0.00976563	-0.0427246
-0.0515747	0.0106812	-0.0408936
-0.050354	0.012207	-0.038147
-0.0479126	0.0131226	-0.03479
-0.0442505	0.0125122	-0.0317383
-0.0408936	0.0106812	-0.0302124
-0.038147	0.00946045	-0.0286865
-0.0369263	0.00854492	-0.0283813
-0.0360107	0.00793457	-0.0280762
-0.03479	0.00610352	-0.0286865
-0.0326538	0.00274658	-0.0299072
-0.0305176	-0.000610352	-0.0311279
-0.0311279	-0.00183105	-0.032959
-0.0344849	-0.00152588	-0.0360107
-0.0369263	-0.00183105	-0.0387573
-0.0366211	-0.00366211	-0.0402832
-0.0344849	-0.00640869	-0.0408936
-0.032959	-0.00823975	-0.0411987
-0.03479	-0.00732422	-0.0421143
-0.0378418	-0.00640869	-0.0442505
-0.0384521	-0.00701904	-0.0454712
-0.038147	-0.00701904	-0.045166
-0.039978	-0.00366211	-0.0436401
-0.0436401	0.000915527	-0.0427246
-0.0473022	0.00488281	-0.0424194
-0.0491333	0.00671387	-0.0424194
-0.0488281	0.00762939	-0.0411987
-0.0485229	0.0088501	-0.0396729
-0.0497437	0.0115967	-0.038147
-0.0515747	0.0149536	-0.0366211
-0.0521851	0.0164795	-0.0357056
-0.0515747	0.0158691	-0.0357056
-0.0500488	0.0143433	-0.0357056
-0.0494385	0.0131226	-0.0363159
-0.050354	0.0119019	-0.0384521
-0.0509644	0.0100708	-0.0408936
-0.0497437	0.00671387	-0.0430298
-0.0473022	0.00366211	-0.0436401
-0.043335	0.0012207	-0.0421143
-0.0390625	-0.000610352	-0.0396729
-0.0357056	-0.0012207	-0.0369263
-0.0332642	-0.000305176	-0.0335693
-0.0308228	0.000915527	-0.0299072
-0.027771	0.00305176	-0.0247192
-0.0253296	0.00579834	-0.0195313
-0.0231934	0.00793457	-0.0152588
-0.0222778	0.00976563	-0.0125122
-0.0219727	0.0109863	-0.0109863
-0.0213623	0.0109863	-0.010376
-0.0201416	0.00915527	-0.0109863
-0.0183105	0.00701904	-0.0112915
-0.0177002	0.00518799	-0.0125122
-0.0170898	0.00274658	-0.0143433
-0.015564	0	-0.015564
-0.0146484	-0.000610352	-0.0152588
-0.0161743	0.00183105	-0.0143433
-0.0195313	0.00640869	-0.0131226
-0.0234985	0.0131226	-0.010376
-0.0271606	0.020752	-0.00640869
-0.0302124	0.0283813	-0.00183105
-0.0311279	0.0335693	0.00244141
-0.0305176	0.0372314	0.00671387
-0.0314331	0.0424194	0.0109863
-0.0323486	0.0482178	0.0158691
-0.0286865	0.0494385	0.020752
-0.0201416	0.0457764	0.0256348
-0.0100708	0.039978	0.0299072
-0.0012207	0.0344849	0.0332642
0.00579834	0.0299072	0.0357056
0.0128174	0.0256348	0.0384521
0.0213623	0.0213623	0.0427246
0.0311279	0.0167847	0.0479126
0.039978	0.0131226	0.0531006
0.0448608	0.0109863	0.0558472
0.0479126	0.00915527	0.0570679
0.0506592	0.00732422	0.0579834
0.0515747	0.00793457	0.0595093
0.0500488	0.010376	0.0604248
0.0488281	0.0106812	0.0595093
0.0482178	0.00701904	0.0552368
0.0457764	0.00183105	0.0476074
0.0387573	-0.00152588	0.0372314
0.0289917	-0.00244141	0.0265503
0.0210571	-0.00457764	0.0164795
0.0161743	-0.00915527	0.00701904
0.0125122	-0.0143433	-0.00183105
0.00823975	-0.0180054	-0.00976563
0.00305176	-0.0195313	-0.0164795
-0.00244141	-0.0204468	-0.0228882
-0.00793457	-0.020752	-0.0286865
-0.012207	-0.0204468	-0.0326538
-0.0152588	-0.0195313	-0.03479
-0.0183105	-0.0180054	-0.0363159
-0.0222778	-0.0161743	-0.0384521
-0.0271606	-0.0143433	-0.0415039
-0.0317383	-0.0128174	-0.0445557
-0.0366211	-0.010376	-0.0469971
-0.0421143	-0.00701904	-0.0491333
-0.0479126	-0.00366211	-0.0515747
-0.0527954	-0.00152588	-0.0543213
-0.0570679	-0.000610352	-0.0576782
-0.0582886	-0.00152588	-0.0598145
-0.0576782	-0.00427246	-0.0619507
-0.0561523	-0.00823975	-0.0643921
-0.0552368	-0.012207	-0.0674438
-0.0552368	-0.0152588	-0.0704956
-0.0561523	-0.0170898	-0.0732422
-0.057373	-0.0186157	-0.0759888
-0.0579834	-0.020752	-0.0787354
-0.0582886	-0.0228882	-0.0811768
-0.0610352	-0.0228882	-0.0839233
-0.0650024	-0.0210571	-0.0860596
-0.0671387	-0.0195313	-0.0866699
-0.0656128	-0.0192261	-0.0848389
-0.0643921	-0.0183105	-0.0827026
-0.0628662	-0.0170898	-0.0799561
-0.0592041	-0.0170898	-0.0762939
-0.0561523	-0.0170898	-0.0732422
-0.0558472	-0.0161743	-0.0720215
-0.0546265	-0.0164795	-0.071106
-0.0527954	-0.0204468	-0.0732422
-0.0521851	-0.0268555	-0.0790405
-0.0537109	-0.0350952	-0.0888062
-0.0564575	-0.0442505	-0.100708
-0.06073	-0.0540161	-0.114746
-0.0650024	-0.0619507	-0.126953
-0.0671387	-0.065918	-0.133057
-0.0653076	-0.0628662	-0.128174
-0.0561523	-0.0527954	-0.108948
-0.0341797	-0.0378418	-0.0720215
0.00152588	-0.0164795	-0.0149536
0.0497437	0.012207	0.0619507
0.109558	0.0473022	0.15686
0.180054	0.088501	0.268555
0.259705	0.136719	0.396423
0.347595	0.189209	0.536804
0.441895	0.238342	0.680237
0.533142	0.279541	0.812683
0.612183	0.310364	0.922546
0.675354	0.32959	1.00494
0.717773	0.335693	1.05347
0.735779	0.327454	1.06323
0.727844	0.30365	1.03149
0.693359	0.264893	0.958252
0.632629	0.214844	0.847473
0.546875	0.157166	0.704041
0.440674	0.0958252	0.536499
0.322571	0.0341797	0.35675
0.202332	-0.0234985	0.178833
0.0878906	-0.0723267	0.015564
-0.012207	-0.110779	-0.122986
-0.0952148	-0.137329	-0.232544
-0.161133	-0.151978	-0.31311
-0.20813	-0.155334	-0.363464
-0.231934	-0.152893	-0.384827
-0.233459	-0.1474	-0.380859
-0.217896	-0.139771	-0.357666
-0.19043	-0.1297	-0.320129
-0.157166	-0.118103	-0.275269
-0.123596	-0.105591	-0.229187
-0.0952148	-0.0924683	-0.187683
-0.0741577	-0.0787354	-0.152893
-0.06073	-0.0650024	-0.125732
-0.0537109	-0.0515747	-0.105286
-0.0521851	-0.0390625	-0.0912476
-0.0549316	-0.027771	-0.0827026
-0.0598145	-0.0195313	-0.0793457
-0.0662231	-0.0149536	-0.0811768
-0.0738525	-0.012207	-0.0860596
-0.0830078	-0.0088501	-0.0918579
-0.0912476	-0.00610352	-0.0973511
-0.0939941	-0.00732422	-0.101318
-0.0912476	-0.0131226	-0.10437
-0.0866699	-0.0186157	-0.105286
-0.0836182	-0.0213623	-0.10498
-0.0817871	-0.0219727	-0.10376
-0.0808716	-0.0210571	-0.101929
-0.0814819	-0.0192261	-0.100708
-0.0814819	-0.0167847	-0.0982666
-0.0814819	-0.0143433	-0.0958252
-0.0814819	-0.0125122	-0.0939941
-0.0808716	-0.0109863	-0.0918579
-0.0787354	-0.0106812	-0.0894165
-0.0753784	-0.0112915	-0.0866699
-0.0714111	-0.0128174	-0.0842285
-0.0683594	-0.0152588	-0.0836182
-0.0653076	-0.0177002	-0.0830078
-0.0613403	-0.0195313	-0.0808716
-0.0564575	-0.0213623	-0.0778198
-0.0521851	-0.0231934	-0.0753784
-0.0497437	-0.0244141	-0.0741577
-0.0500488	-0.0244141	-0.0744629
-0.0515747	-0.0234985	-0.0750732
-0.0515747	-0.0234985	-0.0750732
-0.0485229	-0.0238037	-0.0723267
-0.0457764	-0.022583	-0.0683594
-0.0424194	-0.0219727	-0.0643921
-0.0378418	-0.0228882	-0.06073
-0.0341797	-0.0234985	-0.0576782
-0.0308228	-0.0244141	-0.0552368
-0.0271606	-0.0259399	-0.0531006
-0.0250244	-0.0262451	-0.0512695
-0.0253296	-0.0244141	-0.0497437
-0.0271606	-0.0228882	-0.0500488
-0.0292969	-0.0210571	-0.050354
-0.0308228	-0.0192261	-0.0500488
-0.0317383	-0.0180054	-0.0497437
-0.0332642	-0.0180054	-0.0512695
-0.0357056	-0.0167847	-0.0524902
-0.0387573	-0.0137329	-0.0524902
-0.0390625	-0.0112915	-0.050354
-0.0369263	-0.010376	-0.0473022
-0.0344849	-0.0106812	-0.045166
-0.0317383	-0.0131226	-0.0448608
-0.0268555	-0.0183105	-0.045166
-0.0210571	-0.0234985	-0.0445557
-0.0177002	-0.0262451	-0.0439453
-0.0152588	-0.027771	-0.0430298
-0.0112915	-0.0308228	-0.0421143
-0.00640869	-0.0350952	-0.0415039
-0.00366211	-0.0360107	-0.0396729
-0.00366211	-0.0344849	-0.038147
-0.00366211	-0.0323486	-0.0360107
-0.00274658	-0.0311279	-0.0338745
-0.00213623	-0.0286865	-0.0308228
-0.00152588	-0.0253296	-0.0268555
0.00244141	-0.0234985	-0.0210571
0.00915527	-0.0244141	-0.0152588
0.0167847	-0.0262451	-0.00946045
0.0256348	-0.0286865	-0.00305176
0.0354004	-0.0320435	0.00335693
0.045166	-0.0350952	0.0100708
0.0540161	-0.0363159	0.0177002
0.0619507	-0.0360107	0.0259399
0.0680542	-0.0344849	0.0335693
0.0723267	-0.0317383	0.0405884
0.0759888	-0.0289917	0.0469971
0.0817871	-0.027771	0.0540161
0.0891113	-0.0283813	0.06073
0.0967407	-0.0296021	0.0671387
0.10376	-0.0302124	0.0735474
0.109558	-0.0296021	0.0799561
0.116272	-0.0296021	0.0866699
0.122681	-0.0296021	0.0930786
0.126953	-0.0274658	0.0994873
0.129089	-0.0238037	0.105286
0.13031	-0.0189209	0.111389
0.131531	-0.0137329	0.117798
0.133057	-0.0088501	0.124207
0.134888	-0.00488281	0.130005
0.135193	-0.000915527	0.134277
0.134888	0.00305176	0.137939
0.136719	0.00579834	0.142517
0.13855	0.00762939	0.146179
0.141602	0.00732422	0.148926
0.143738	0.00610352	0.149841
0.143738	0.00640869	0.150146
0.141907	0.00854492	0.150452
0.140076	0.0106812	0.150757
0.137634	0.0131226	0.150757
0.135193	0.015564	0.150757
0.134583	0.0164795	0.151062
0.135193	0.0161743	0.151367
0.135803	0.0161743	0.151978
0.133667	0.0186157	0.152283
0.128174	0.0231934	0.151367
0.119019	0.0296021	0.148621
0.108337	0.0360107	0.144348
0.0976563	0.0405884	0.138245
0.0866699	0.0448608	0.131531
0.072937	0.0494385	0.122375
0.0579834	0.0534058	0.111389
0.0442505	0.0552368	0.0994873
0.0332642	0.0546265	0.0878906
0.0247192	0.0521851	0.0769043
0.0183105	0.0479126	0.0662231
0.0137329	0.0421143	0.0558472
0.00915527	0.0369263	0.0460815
0.00366211	0.0323486	0.0360107
-0.00183105	0.0289917	0.0271606
-0.00854492	0.0274658	0.0189209
-0.0167847	0.0274658	0.0106812
-0.0247192	0.0274658	0.00274658
-0.0326538	0.0265503	-0.00610352
-0.0405884	0.0256348	-0.0149536
-0.0473022	0.0234985	-0.0238037
-0.0531006	0.0210571	-0.0320435
-0.0585938	0.0192261	-0.0393677
-0.062561	0.0164795	-0.0460815
-0.0653076	0.0137329	-0.0515747
-0.067749	0.0112915	-0.0564575
-0.0686646	0.00915527	-0.0595093
-0.0698853	0.00732422	-0.062561
-0.0726318	0.00640869	-0.0662231
-0.0765991	0.00671387	-0.0698853
-0.0814819	0.00762939	-0.0738525
-0.0848389	0.00823975	-0.0765991
-0.0869751	0.0088501	-0.078125
-0.0900269	0.0100708	-0.0799561
-0.0930786	0.0109863	-0.0820923
-0.0952148	0.0106812	-0.0845337
-0.0970459	0.0100708	-0.0869751
-0.0979614	0.00946045	-0.088501
-0.0964355	0.00793457	-0.088501
-0.0933838	0.00701904	-0.0863647
-0.0906372	0.00671387	-0.0839233
-0.0869751	0.00579834	-0.0811768
-0.083313	0.00488281	-0.0784302
-0.0787354	0.00396729	-0.0747681
-0.0747681	0.00335693	-0.0714111
-0.0717163	0.00335693	-0.0683594
-0.0698853	0.00366211	-0.0662231
-0.0686646	0.00335693	-0.0653076
-0.0683594	0.00305176	-0.0653076
-0.0680542	0.00213623	-0.065918
-0.0680542	0.00152588	-0.0665283
-0.0686646	0.000610352	-0.0680542
-0.0708008	0.000305176	-0.0704956
-0.0732422	0.000915527	-0.0723267
-0.0738525	0.00213623	-0.0717163
-0.0735474	0.00305176	-0.0704956
-0.072937	0.00427246	-0.0686646
-0.0750732	0.00701904	-0.0680542
-0.0784302	0.0125122	-0.065918
-0.0823975	0.0186157	-0.0637817
-0.0839233	0.0228882	-0.0610352
-0.0823975	0.0231934	-0.0592041
-0.0796509	0.0210571	-0.0585938
-0.078125	0.0192261	-0.0588989
-0.0772095	0.017395	-0.0598145
-0.0756836	0.0149536	-0.06073
-0.0744629	0.0125122	-0.0619507
-0.0720215	0.00976563	-0.0622559
-0.067749	0.00549316	-0.0622559
-0.0634766	0.00183105	-0.0616455
-0.0610352	0.000610352	-0.0604248
-0.0604248	0.00213623	-0.0582886
-0.0604248	0.00457764	-0.0558472
-0.06073	0.00671387	-0.0540161
-0.0619507	0.00823975	-0.0537109
-0.0610352	0.00915527	-0.0518799
-0.0585938	0.00915527	-0.0494385
-0.0564575	0.00854492	-0.0479126
-0.0552368	0.00854492	-0.0466919
-0.0524902	0.00701904	-0.0454712
-0.0485229	0.00457764	-0.0439453
-0.0427246	0.0012207	-0.0415039
-0.0363159	-0.00183105	-0.038147
-0.0323486	-0.00244141	-0.03479
-0.0302124	-0.00183105	-0.0320435
-0.0280762	-0.00213623	-0.0302124
-0.0265503	-0.00213623	-0.0286865
-0.0271606	-0.00152588	-0.0286865
-0.0283813	-0.0012207	-0.0296021
-0.0299072	-0.0012207	-0.0311279
-0.0314331	-0.00183105	-0.0332642
-0.032959	-0.00305176	-0.0360107
-0.0350952	-0.00366211	-0.0387573
-0.0372314	-0.00335693	-0.0405884
-0.0384521	-0.00274658	-0.0411987
-0.0384521	-0.00305176	-0.0415039
-0.0378418	-0.00335693	-0.0411987
-0.0369263	-0.00366211	-0.0405884
-0.0360107	-0.00396729	-0.039978
