L I	L III	L II(Calc.)
-0.00366211	-0.0454712	-0.0491333
0.00305176	-0.0469971	-0.0439453
0.0088501	-0.0488281	-0.039978
0.0134277	-0.0512695	-0.0378418
0.0158691	-0.0534058	-0.0375366
0.0167847	-0.055542	-0.0387573
0.017395	-0.0570679	-0.0396729
0.0186157	-0.0585938	-0.039978
0.0201416	-0.0604248	-0.0402832
0.0222778	-0.0622559	-0.039978
0.0234985	-0.0640869	-0.0405884
0.0244141	-0.0656128	-0.0411987
0.0268555	-0.0668335	-0.039978
0.0302124	-0.0680542	-0.0378418
0.0350952	-0.0695801	-0.0344849
0.0405884	-0.071106	-0.0305176
0.0454712	-0.0726318	-0.0271606
0.0488281	-0.0735474	-0.0247192
0.0515747	-0.0732422	-0.0216675
0.057373	-0.0723267	-0.0149536
0.0653076	-0.0717163	-0.00640869
0.0723267	-0.0714111	0.000915527
0.0775146	-0.0720215	0.00549316
0.0820923	-0.0735474	0.00854492
0.0869751	-0.0756836	0.0112915
0.0939941	-0.078125	0.0158691
0.102539	-0.0811768	0.0213623
0.110779	-0.0845337	0.0262451
0.117493	-0.0881958	0.0292969
0.123596	-0.0915527	0.0320435
0.129089	-0.0949097	0.0341797
0.134277	-0.0979614	0.0363159
0.13916	-0.0997925	0.0393677
0.143433	-0.100403	0.0430298
0.1474	-0.100403	0.0469971
0.151062	-0.100098	0.0509644
0.154114	-0.0994873	0.0546265
0.15686	-0.0982666	0.0585938
0.159302	-0.0967407	0.062561
0.160828	-0.0952148	0.0656128
0.162354	-0.093689	0.0686646
0.163574	-0.0927734	0.0708008
0.165405	-0.0924683	0.072937
0.166626	-0.0924683	0.0741577
0.168457	-0.0927734	0.0756836
0.169678	-0.0927734	0.0769043
0.170593	-0.093689	0.0769043
0.172424	-0.0942993	0.078125
0.173645	-0.0942993	0.0793457
0.173645	-0.0933838	0.0802612
0.173035	-0.0915527	0.0814819
0.172119	-0.0894165	0.0827026
0.170593	-0.0866699	0.0839233
0.167236	-0.0823975	0.0848389
0.160828	-0.0759888	0.0848389
0.151978	-0.0680542	0.0839233
0.141907	-0.0595093	0.0823975
0.132141	-0.050354	0.0817871
0.122375	-0.0408936	0.0814819
0.111084	-0.0314331	0.0796509
0.098877	-0.0219727	0.0769043
0.0872803	-0.0134277	0.0738525
0.0769043	-0.00549316	0.0714111
0.0668335	0.000915527	0.067749
0.0561523	0.00640869	0.062561
0.045166	0.0109863	0.0561523
0.0341797	0.0140381	0.0482178
0.022583	0.0158691	0.0384521
0.0134277	0.0167847	0.0302124
0.00579834	0.0170898	0.0228882
-0.00152588	0.0170898	0.015564
-0.0088501	0.0167847	0.00793457
-0.0164795	0.0164795	0
-0.0241089	0.0167847	-0.00732422
-0.0311279	0.0170898	-0.0140381
-0.0378418	0.0177002	-0.0201416
-0.0442505	0.0183105	-0.0259399
-0.050354	0.0186157	-0.0317383
-0.0567627	0.0186157	-0.038147
-0.0640869	0.0183105	-0.0457764
-0.0708008	0.017395	-0.0534058
-0.0765991	0.0158691	-0.06073
-0.0808716	0.0149536	-0.065918
-0.0839233	0.0146484	-0.0692749
-0.0863647	0.0146484	-0.0717163
-0.088501	0.0143433	-0.0741577
-0.0906372	0.0140381	-0.0765991
-0.0921631	0.0137329	-0.0784302
-0.0933838	0.0137329	-0.0796509
-0.0949097	0.0140381	-0.0808716
-0.0970459	0.0149536	-0.0820923
-0.100098	0.0164795	-0.0836182
-0.103455	0.0180054	-0.0854492
-0.106506	0.0192261	-0.0872803
-0.108643	0.0198364	-0.0888062
-0.109253	0.0195313	-0.0897217
-0.108643	0.0186157	-0.0900269
-0.108337	0.0180054	-0.090332
-0.108337	0.0180054	-0.090332
-0.108337	0.0180054	-0.090332
-0.106506	0.0167847	-0.0897217
-0.104065	0.0149536	-0.0891113
-0.101318	0.0128174	-0.088501
-0.0985718	0.0109863	-0.0875854
-0.0952148	0.00915527	-0.0860596
-0.0915527	0.00762939	-0.0839233
-0.088501	0.00610352	-0.0823975
-0.0857544	0.00488281	-0.0808716
-0.0836182	0.00427246	-0.0793457
-0.0817871	0.00396729	-0.0778198
-0.0802612	0.00335693	-0.0769043
-0.0793457	0.00213623	-0.0772095
-0.0787354	0.0012207	-0.0775146
-0.0778198	0.000915527	-0.0769043
-0.078125	0.000915527	-0.0772095
-0.0799561	0.00152588	-0.0784302
-0.0814819	0.00152588	-0.0799561
-0.0814819	0.00152588	-0.0799561
-0.0808716	0.00152588	-0.0793457
-0.0796509	0.0012207	-0.0784302
-0.0787354	0.000915527	-0.0778198
-0.0778198	0.000305176	-0.0775146
-0.0775146	-0.0012207	-0.0787354
-0.0775146	-0.00274658	-0.0802612
-0.0765991	-0.00488281	-0.0814819
-0.0741577	-0.00701904	-0.0811768
-0.0723267	-0.0100708	-0.0823975
-0.0701904	-0.0134277	-0.0836182
-0.0674438	-0.0161743	-0.0836182
-0.0643921	-0.0180054	-0.0823975
-0.0613403	-0.0183105	-0.0796509
-0.0579834	-0.0177002	-0.0756836
-0.0549316	-0.0167847	-0.0717163
-0.0521851	-0.015564	-0.067749
-0.050354	-0.0143433	-0.0646973
-0.050354	-0.0131226	-0.0634766
-0.0500488	-0.012207	-0.0622559
-0.0509644	-0.0115967	-0.062561
-0.0524902	-0.0115967	-0.0640869
-0.0527954	-0.012207	-0.0650024
-0.0509644	-0.0131226	-0.0640869
-0.0491333	-0.0137329	-0.0628662
-0.0479126	-0.0134277	-0.0613403
-0.0469971	-0.0137329	-0.06073
-0.045166	-0.0140381	-0.0592041
-0.0430298	-0.0146484	-0.0576782
-0.0402832	-0.0152588	-0.055542
-0.0375366	-0.015564	-0.0531006
-0.0366211	-0.0152588	-0.0518799
-0.0372314	-0.015564	-0.0527954
-0.0390625	-0.0167847	-0.0558472
-0.0421143	-0.0180054	-0.0601196
-0.0454712	-0.0195313	-0.0650024
-0.0482178	-0.020752	-0.0689697
-0.050354	-0.0219727	-0.0723267
-0.0527954	-0.0228882	-0.0756836
-0.0549316	-0.0238037	-0.0787354
-0.0570679	-0.0238037	-0.0808716
-0.0582886	-0.0241089	-0.0823975
-0.0588989	-0.0250244	-0.0839233
-0.0582886	-0.0265503	-0.0848389
-0.0561523	-0.0292969	-0.0854492
-0.0534058	-0.0317383	-0.085144
-0.0506592	-0.032959	-0.0836182
-0.0482178	-0.0332642	-0.0814819
-0.0460815	-0.0332642	-0.0793457
-0.0439453	-0.0335693	-0.0775146
-0.043335	-0.0335693	-0.0769043
-0.0442505	-0.0323486	-0.0765991
-0.0469971	-0.0305176	-0.0775146
-0.0494385	-0.0283813	-0.0778198
-0.050354	-0.0271606	-0.0775146
-0.050354	-0.0268555	-0.0772095
-0.0506592	-0.0262451	-0.0769043
-0.0512695	-0.0247192	-0.0759888
-0.0518799	-0.022583	-0.0744629
-0.0521851	-0.020752	-0.072937
-0.0509644	-0.0195313	-0.0704956
-0.0485229	-0.017395	-0.065918
-0.0463867	-0.0137329	-0.0601196
-0.0454712	-0.00854492	-0.0540161
-0.0454712	-0.00213623	-0.0476074
-0.0448608	0.00396729	-0.0408936
-0.0421143	0.00915527	-0.032959
-0.0393677	0.0131226	-0.0262451
-0.0375366	0.0164795	-0.0210571
-0.0360107	0.0192261	-0.0167847
-0.03479	0.0219727	-0.0128174
-0.0335693	0.0244141	-0.00915527
-0.0317383	0.0265503	-0.00518799
-0.0286865	0.027771	-0.000915527
-0.0262451	0.0286865	0.00244141
-0.0247192	0.0305176	0.00579834
-0.0244141	0.0338745	0.00946045
-0.0234985	0.0375366	0.0140381
-0.0189209	0.0405884	0.0216675
-0.0106812	0.043335	0.0326538
-0.00213623	0.0460815	0.0439453
0.00457764	0.0488281	0.0534058
0.0109863	0.050354	0.0613403
0.0186157	0.0500488	0.0686646
0.0268555	0.0485229	0.0753784
0.0344849	0.0460815	0.0805664
0.0396729	0.0427246	0.0823975
0.0421143	0.0387573	0.0808716
0.0421143	0.0338745	0.0759888
0.0405884	0.0283813	0.0689697
0.0387573	0.0219727	0.06073
0.0360107	0.0149536	0.0509644
0.0317383	0.00762939	0.0393677
0.0256348	0.000610352	0.0262451
0.0192261	-0.00610352	0.0131226
0.0131226	-0.0134277	-0.000305176
0.00854492	-0.0201416	-0.0115967
0.00274658	-0.0253296	-0.022583
-0.00396729	-0.0286865	-0.0326538
-0.0119019	-0.0305176	-0.0424194
-0.0204468	-0.0317383	-0.0521851
-0.0292969	-0.0323486	-0.0616455
-0.0384521	-0.0326538	-0.071106
-0.0469971	-0.0314331	-0.0784302
-0.0546265	-0.0302124	-0.0848389
-0.0613403	-0.0299072	-0.0912476
-0.0665283	-0.0308228	-0.0973511
-0.071106	-0.0335693	-0.104675
-0.0741577	-0.0372314	-0.111389
-0.0750732	-0.0415039	-0.116577
-0.0756836	-0.0448608	-0.120544
-0.0769043	-0.0479126	-0.124817
-0.078125	-0.050354	-0.128479
-0.0775146	-0.0527954	-0.13031
-0.0762939	-0.0543213	-0.130615
-0.0769043	-0.055542	-0.132446
-0.0796509	-0.0558472	-0.135498
-0.0820923	-0.0561523	-0.138245
-0.0827026	-0.0564575	-0.13916
-0.0830078	-0.0570679	-0.140076
-0.0842285	-0.0576782	-0.141907
-0.0857544	-0.0582886	-0.144043
-0.0860596	-0.0579834	-0.144043
-0.0857544	-0.057373	-0.143127
-0.085144	-0.0570679	-0.142212
-0.0857544	-0.0558472	-0.141602
-0.0872803	-0.0543213	-0.141602
-0.088501	-0.0531006	-0.141602
-0.0894165	-0.0540161	-0.143433
-0.0900269	-0.0588989	-0.148926
-0.0915527	-0.0671387	-0.158691
-0.0939941	-0.0787354	-0.172729
-0.0967407	-0.0915527	-0.188293
-0.0982666	-0.104065	-0.202332
-0.0973511	-0.11322	-0.210571
-0.0939941	-0.116882	-0.210876
-0.0860596	-0.113525	-0.199585
-0.0698853	-0.102234	-0.172119
-0.0430298	-0.0830078	-0.126038
-0.00488281	-0.0546265	-0.0595093
0.0436401	-0.0177002	0.0259399
0.10376	0.0262451	0.130005
0.174866	0.0753784	0.250244
0.256348	0.128784	0.385132
0.345154	0.183716	0.52887
0.435181	0.234375	0.669556
0.519714	0.273743	0.793457
0.593872	0.299683	0.893555
0.65094	0.312195	0.963135
0.686035	0.310364	0.996399
0.695801	0.292053	0.987854
0.678101	0.257874	0.935974
0.632935	0.209656	0.84259
0.559998	0.153198	0.713196
0.461426	0.0927734	0.554199
0.344238	0.0314331	0.375671
0.218506	-0.0274658	0.19104
0.0952148	-0.0802612	0.0149536
-0.017395	-0.12207	-0.139465
-0.114136	-0.151672	-0.265808
-0.19165	-0.169373	-0.361023
-0.248413	-0.176086	-0.4245
-0.281372	-0.17395	-0.455322
-0.290222	-0.16571	-0.455933
-0.27771	-0.154419	-0.432129
-0.250244	-0.140991	-0.391235
-0.215454	-0.126038	-0.341492
-0.179138	-0.111389	-0.290527
-0.145569	-0.0976563	-0.243225
-0.118103	-0.0857544	-0.203857
-0.098877	-0.0747681	-0.173645
-0.0875854	-0.0646973	-0.152283
-0.0830078	-0.0567627	-0.139771
-0.083313	-0.0509644	-0.134277
-0.0875854	-0.0479126	-0.135498
-0.0933838	-0.0476074	-0.140991
-0.100098	-0.0482178	-0.148315
-0.106812	-0.0494385	-0.15625
-0.111389	-0.0509644	-0.162354
-0.112915	-0.0527954	-0.16571
-0.112305	-0.0543213	-0.166626
-0.109863	-0.0552368	-0.1651
-0.107422	-0.0549316	-0.162354
-0.10376	-0.0537109	-0.157471
-0.100708	-0.0521851	-0.152893
-0.098877	-0.0512695	-0.150146
-0.0982666	-0.0515747	-0.149841
-0.0958252	-0.0524902	-0.148315
-0.0924683	-0.0534058	-0.145874
-0.090332	-0.0549316	-0.145264
-0.0894165	-0.0567627	-0.146179
-0.0888062	-0.0595093	-0.148315
-0.0875854	-0.0628662	-0.150452
-0.0857544	-0.0662231	-0.151978
-0.0839233	-0.0686646	-0.152588
-0.0827026	-0.0701904	-0.152893
-0.0814819	-0.071106	-0.152588
-0.0796509	-0.071106	-0.150757
-0.0778198	-0.0698853	-0.147705
-0.0769043	-0.0671387	-0.144043
-0.0772095	-0.0643921	-0.141602
-0.0772095	-0.0616455	-0.138855
-0.0759888	-0.0595093	-0.135498
-0.0738525	-0.0582886	-0.132141
-0.0717163	-0.0579834	-0.1297
-0.0692749	-0.0579834	-0.127258
-0.0665283	-0.0588989	-0.125427
-0.0631714	-0.0601196	-0.123291
-0.0585938	-0.0619507	-0.120544
-0.0543213	-0.0643921	-0.118713
-0.050354	-0.0674438	-0.117798
-0.0463867	-0.0701904	-0.116577
-0.0418091	-0.0723267	-0.114136
-0.0375366	-0.0732422	-0.110779
-0.0341797	-0.072937	-0.107117
-0.0317383	-0.0720215	-0.10376
-0.0296021	-0.0708008	-0.100403
-0.0274658	-0.0692749	-0.0967407
-0.0259399	-0.067749	-0.093689
-0.0250244	-0.0662231	-0.0912476
-0.0244141	-0.0643921	-0.0888062
-0.0241089	-0.0628662	-0.0869751
-0.0234985	-0.0616455	-0.085144
-0.022583	-0.0610352	-0.0836182
-0.0201416	-0.0616455	-0.0817871
-0.0161743	-0.0631714	-0.0793457
-0.012207	-0.0640869	-0.0762939
-0.0088501	-0.0640869	-0.072937
-0.00488281	-0.0631714	-0.0680542
0.000305176	-0.062561	-0.0622559
0.00671387	-0.0622559	-0.055542
0.0131226	-0.0616455	-0.0485229
0.0186157	-0.06073	-0.0421143
0.0231934	-0.0598145	-0.0366211
0.0268555	-0.0585938	-0.0317383
0.0314331	-0.0582886	-0.0268555
0.0357056	-0.0582886	-0.022583
0.0387573	-0.0588989	-0.0201416
0.0411987	-0.0601196	-0.0189209
0.0442505	-0.0622559	-0.0180054
0.0485229	-0.0637817	-0.0152588
0.0552368	-0.0646973	-0.00946045
0.0634766	-0.0650024	-0.00152588
0.0714111	-0.0653076	0.00610352
0.0778198	-0.0653076	0.0125122
0.0842285	-0.0656128	0.0186157
0.0900269	-0.0653076	0.0247192
0.09552	-0.0640869	0.0314331
0.100708	-0.062561	0.038147
0.105896	-0.0616455	0.0442505
0.110474	-0.0610352	0.0494385
0.113525	-0.0601196	0.0534058
0.115967	-0.0585938	0.057373
0.117493	-0.0570679	0.0604248
0.117798	-0.0558472	0.0619507
0.117798	-0.0546265	0.0631714
0.119019	-0.0524902	0.0665283
0.120544	-0.050354	0.0701904
0.121765	-0.0479126	0.0738525
0.122375	-0.0457764	0.0765991
0.122375	-0.0436401	0.0787354
0.121765	-0.0415039	0.0802612
0.121155	-0.0387573	0.0823975
0.121765	-0.0363159	0.0854492
0.122986	-0.0332642	0.0897217
0.122986	-0.0299072	0.0930786
0.121765	-0.0262451	0.09552
0.119324	-0.0222778	0.0970459
0.116882	-0.0186157	0.0982666
0.114746	-0.0146484	0.100098
0.111389	-0.0109863	0.100403
0.106201	-0.00701904	0.0991821
0.0991821	-0.00274658	0.0964355
0.0915527	0.00152588	0.0930786
0.0848389	0.00579834	0.0906372
0.0772095	0.00915527	0.0863647
0.0686646	0.0112915	0.0799561
0.0595093	0.0125122	0.0720215
0.0509644	0.0131226	0.0640869
0.0421143	0.0131226	0.0552368
0.0317383	0.012207	0.0439453
0.0201416	0.0109863	0.0311279
0.00915527	0.0088501	0.0180054
0	0.00640869	0.00640869
-0.00854492	0.00396729	-0.00457764
-0.0167847	0.00152588	-0.0152588
-0.0244141	-0.000610352	-0.0250244
-0.0311279	-0.00274658	-0.0338745
-0.0363159	-0.00488281	-0.0411987
-0.0408936	-0.00701904	-0.0479126
-0.0448608	-0.00915527	-0.0540161
-0.0476074	-0.0119019	-0.0595093
-0.0491333	-0.0146484	-0.0637817
-0.0512695	-0.017395	-0.0686646
-0.0537109	-0.0192261	-0.072937
-0.0567627	-0.0204468	-0.0772095
-0.0595093	-0.0216675	-0.0811768
-0.0622559	-0.0222778	-0.0845337
-0.0640869	-0.022583	-0.0866699
-0.0656128	-0.0219727	-0.0875854
-0.0680542	-0.0204468	-0.088501
-0.0714111	-0.0180054	-0.0894165
-0.0741577	-0.015564	-0.0897217
-0.0750732	-0.0140381	-0.0891113
-0.0756836	-0.0128174	-0.088501
-0.0759888	-0.0119019	-0.0878906
-0.0765991	-0.0115967	-0.0881958
-0.078125	-0.0109863	-0.0891113
-0.0811768	-0.0109863	-0.0921631
-0.0860596	-0.0109863	-0.0970459
-0.0912476	-0.0109863	-0.102234
-0.0933838	-0.0109863	-0.10437
-0.0915527	-0.0109863	-0.102539
-0.0891113	-0.0100708	-0.0991821
-0.0866699	-0.00854492	-0.0952148
-0.0842285	-0.00732422	-0.0915527
-0.0808716	-0.00640869	-0.0872803
-0.0762939	-0.00610352	-0.0823975
-0.0714111	-0.00579834	-0.0772095
-0.0674438	-0.00579834	-0.0732422
-0.0653076	-0.00610352	-0.0714111
-0.0650024	-0.00701904	-0.0720215
-0.0650024	-0.0088501	-0.0738525
-0.0656128	-0.0109863	-0.0765991
-0.0665283	-0.0128174	-0.0793457
-0.0674438	-0.0146484	-0.0820923
-0.0671387	-0.0167847	-0.0839233
-0.0653076	-0.0180054	-0.083313
-0.062561	-0.0177002	-0.0802612
-0.0595093	-0.0164795	-0.0759888
-0.0543213	-0.0149536	-0.0692749
-0.0485229	-0.0134277	-0.0619507
-0.0445557	-0.0125122	-0.0570679
-0.0430298	-0.0112915	-0.0543213
-0.0439453	-0.00946045	-0.0534058
-0.0463867	-0.00793457	-0.0543213
-0.0479126	-0.00762939	-0.055542
-0.0476074	-0.00854492	-0.0561523
-0.0463867	-0.010376	-0.0567627
-0.0445557	-0.012207	-0.0567627
-0.0439453	-0.0137329	-0.0576782
-0.0439453	-0.0146484	-0.0585938
-0.0430298	-0.015564	-0.0585938
-0.0415039	-0.0164795	-0.0579834
-0.0405884	-0.0170898	-0.0576782
-0.0402832	-0.0170898	-0.057373
-0.0402832	-0.017395	-0.0576782
-0.0405884	-0.0170898	-0.0576782
-0.0415039	-0.0164795	-0.0579834
-0.0418091	-0.015564	-0.057373
-0.0411987	-0.015564	-0.0567627
-0.0402832	-0.015564	-0.0558472
-0.038147	-0.0158691	-0.0540161
-0.03479	-0.0161743	-0.0509644
-0.0311279	-0.0161743	-0.0473022
-0.0289917	-0.0158691	-0.0448608
-0.0296021	-0.0152588	-0.0448608
-0.0320435	-0.0152588	-0.0473022
-0.0335693	-0.0158691	-0.0494385
-0.0314331	-0.0170898	-0.0485229
-0.0289917	-0.0180054	-0.0469971
-0.0292969	-0.0180054	-0.0473022
-0.0308228	-0.0177002	-0.0485229
-0.0305176	-0.0177002	-0.0482178
-0.027771	-0.0183105	-0.0460815
-0.0250244	-0.0186157	-0.0436401
-0.0231934	-0.0186157	-0.0418091
-0.0219727	-0.0183105	-0.0402832
-0.0216675	-0.017395	-0.0390625
-0.0228882	-0.0167847	-0.0396729
-0.0253296	-0.0164795	-0.0418091
-0.0280762	-0.0167847	-0.0448608
-0.0317383	-0.0177002	-0.0494385
-0.0350952	-0.0189209	-0.0540161
-0.0378418	-0.0198364	-0.0576782
-0.0405884	-0.0201416	-0.06073
-0.0427246	-0.020752	-0.0634766
-0.0430298	-0.0213623	-0.0643921
-0.0411987	-0.0219727	-0.0631714
-0.0375366	-0.0219727	-0.0595093
-0.032959	-0.0210571	-0.0540161
-0.0308228	-0.0198364	-0.0506592
-0.0317383	-0.0180054	-0.0497437
-0.0344849	-0.0161743	-0.0506592
-0.0369263	-0.0143433	-0.0512695
-0.0384521	-0.0125122	-0.0509644
-0.0408936	-0.0106812	-0.0515747
-0.0445557	-0.0088501	-0.0534058
-0.0491333	-0.00732422	-0.0564575
-0.0527954	-0.00579834	-0.0585938
-0.055542	-0.00518799	-0.06073
-0.057373	-0.00488281	-0.0622559
-0.0582886	-0.00488281	-0.0631714
-0.0576782	-0.00549316	-0.0631714
-0.0564575	-0.00579834	-0.0622559
-0.0558472	-0.00579834	-0.0616455
-0.0558472	-0.00610352	-0.0619507
-0.0558472	-0.00610352	-0.0619507
-0.0564575	-0.00610352	-0.062561
-0.057373	-0.00549316	-0.0628662
-0.0585938	-0.00457764	-0.0631714
-0.0592041	-0.00396729	-0.0631714
-0.0582886	-0.00305176	-0.0613403
-0.0552368	-0.00213623	-0.057373
-0.0509644	-0.000610352	-0.0515747
-0.0460815	0.0012207	-0.0448608
-0.0424194	0.00396729	-0.0384521
-0.0396729	0.00793457	-0.0317383
-0.038147	0.0128174	-0.0253296
-0.038147	0.0186157	-0.0195313
-0.0390625	0.0253296	-0.0137329
-0.0393677	0.032959	-0.00640869
-0.039978	0.0408936	0.000915527
-0.0408936	0.0494385	0.00854492
-0.0411987	0.0579834	0.0167847
-0.0418091	0.0653076	0.0234985
-0.0418091	0.071106	0.0292969
-0.0424194	0.0747681	0.0323486
-0.0427246	0.0778198	0.0350952
-0.0430298	0.0802612	0.0372314
-0.0424194	0.0817871	0.0393677
-0.0405884	0.0830078	0.0424194
-0.0387573	0.0836182	0.0448608
-0.0366211	0.0842285	0.0476074
-0.0320435	0.0842285	0.0521851
-0.0247192	0.0842285	0.0595093
-0.015564	0.0845337	0.0689697
-0.00579834	0.085144	0.0793457
0.00518799	0.0863647	0.0915527
0.0170898	0.0863647	0.103455
0.0280762	0.0836182	0.111694
0.0378418	0.078125	0.115967
0.0466919	0.0708008	0.117493
0.0531006	0.062561	0.115662
0.0558472	0.0549316	0.110779
0.0540161	0.0476074	0.101624
0.0488281	0.039978	0.0888062
0.0415039	0.0323486	0.0738525
0.0335693	0.0241089	0.0576782
0.0259399	0.0167847	0.0427246
0.0183105	0.0100708	0.0283813
0.010376	0.00488281	0.0152588
0.00183105	0.000915527	0.00274658
-0.00640869	-0.00152588	-0.00793457
-0.0137329	-0.00305176	-0.0167847
-0.0204468	-0.00427246	-0.0247192
-0.0265503	-0.00457764	-0.0311279
-0.0323486	-0.00427246	-0.0366211
-0.0372314	-0.00427246	-0.0415039
-0.0418091	-0.00427246	-0.0460815
-0.0466919	-0.00427246	-0.0509644
-0.0518799	-0.00457764	-0.0564575
-0.0564575	-0.00549316	-0.0619507
-0.06073	-0.00793457	-0.0686646
-0.0634766	-0.0112915	-0.0747681
-0.0653076	-0.0158691	-0.0811768
-0.0665283	-0.020752	-0.0872803
-0.0671387	-0.0250244	-0.0921631
-0.0674438	-0.0289917	-0.0964355
-0.0683594	-0.0326538	-0.101013
-0.0701904	-0.0341797	-0.10437
-0.072937	-0.0344849	-0.107422
-0.0756836	-0.0338745	-0.109558
-0.078125	-0.032959	-0.111084
-0.0802612	-0.0317383	-0.112
-0.0827026	-0.0311279	-0.113831
-0.085144	-0.0308228	-0.115967
-0.0869751	-0.0308228	-0.117798
-0.0869751	-0.0308228	-0.117798
-0.083313	-0.0311279	-0.114441
-0.078125	-0.0323486	-0.110474
-0.0747681	-0.0338745	-0.108643
-0.0720215	-0.0366211	-0.108643
-0.0695801	-0.0408936	-0.110474
-0.0674438	-0.0479126	-0.115356
-0.0665283	-0.0579834	-0.124512
-0.0695801	-0.0701904	-0.139771
-0.0750732	-0.0839233	-0.158997
-0.0799561	-0.0967407	-0.176697
-0.0823975	-0.106201	-0.188599
-0.0808716	-0.109863	-0.190735
-0.0723267	-0.107117	-0.179443
-0.0531006	-0.0982666	-0.151367
-0.0222778	-0.0814819	-0.10376
0.0204468	-0.0549316	-0.0344849
0.0762939	-0.0189209	0.057373
0.144653	0.0241089	0.168762
0.225525	0.0717163	0.297241
0.316162	0.122986	0.439148
0.413208	0.177917	0.591125
0.510254	0.232544	0.742798
0.59845	0.281067	0.879517
0.672302	0.319824	0.992126
0.729065	0.345459	1.07452
0.764465	0.355835	1.1203
0.775146	0.349121	1.12427
0.758362	0.325012	1.08337
0.713501	0.284424	0.997925
0.639648	0.232849	0.872498
0.540161	0.174255	0.714417
0.421448	0.111389	0.532837
0.293884	0.0482178	0.342102
0.167542	-0.0100708	0.157471
0.0506592	-0.0592041	-0.00854492
-0.0497437	-0.0967407	-0.146484
-0.130615	-0.12146	-0.252075
-0.19043	-0.133972	-0.324402
-0.226746	-0.136108	-0.362854
-0.240784	-0.130005	-0.370789
-0.234985	-0.118408	-0.353394
-0.213623	-0.104065	-0.317688
-0.184021	-0.0897217	-0.273743
-0.151978	-0.0769043	-0.228882
-0.123291	-0.0662231	-0.189514
-0.102234	-0.0570679	-0.159302
-0.0881958	-0.0491333	-0.137329
-0.0799561	-0.0427246	-0.122681
-0.0765991	-0.0384521	-0.115051
-0.0772095	-0.0360107	-0.11322
-0.0817871	-0.0357056	-0.117493
-0.0878906	-0.0372314	-0.125122
-0.093689	-0.0396729	-0.133362
-0.0982666	-0.0427246	-0.140991
-0.101013	-0.0454712	-0.146484
-0.101624	-0.0473022	-0.148926
-0.101013	-0.0476074	-0.148621
-0.100098	-0.0466919	-0.14679
-0.0991821	-0.0457764	-0.144958
-0.0976563	-0.045166	-0.142822
-0.0961304	-0.0448608	-0.140991
-0.0949097	-0.0448608	-0.139771
-0.0933838	-0.045166	-0.13855
-0.0906372	-0.0460815	-0.136719
-0.0863647	-0.0479126	-0.134277
-0.0830078	-0.0497437	-0.132751
-0.0814819	-0.050354	-0.131836
-0.0802612	-0.0509644	-0.131226
-0.0793457	-0.0515747	-0.13092
-0.0784302	-0.0518799	-0.13031
-0.078125	-0.0512695	-0.129395
-0.078125	-0.0497437	-0.127869
-0.0790405	-0.0479126	-0.126953
-0.0784302	-0.0460815	-0.124512
-0.0765991	-0.0442505	-0.12085
-0.0744629	-0.0427246	-0.117188
-0.072937	-0.0408936	-0.113831
-0.0720215	-0.0393677	-0.111389
-0.0695801	-0.038147	-0.107727
-0.0643921	-0.0375366	-0.101929
-0.0579834	-0.0375366	-0.09552
-0.0524902	-0.0384521	-0.0909424
-0.0485229	-0.0390625	-0.0875854
-0.0460815	-0.0402832	-0.0863647
-0.045166	-0.0418091	-0.0869751
-0.0457764	-0.0427246	-0.088501
-0.0476074	-0.0430298	-0.0906372
-0.0488281	-0.0427246	-0.0915527
-0.0500488	-0.0418091	-0.0918579
-0.0509644	-0.0402832	-0.0912476
-0.0521851	-0.0390625	-0.0912476
-0.0534058	-0.0378418	-0.0912476
-0.0543213	-0.0369263	-0.0912476
-0.0537109	-0.0363159	-0.0900269
-0.0518799	-0.0360107	-0.0878906
-0.0482178	-0.0363159	-0.0845337
-0.0430298	-0.0378418	-0.0808716
-0.0369263	-0.0405884	-0.0775146
-0.0311279	-0.043335	-0.0744629
-0.0259399	-0.045166	-0.071106
-0.0201416	-0.0460815	-0.0662231
-0.0137329	-0.0466919	-0.0604248
-0.00762939	-0.0476074	-0.0552368
-0.00152588	-0.0488281	-0.050354
0.00396729	-0.0497437	-0.0457764
0.00793457	-0.0497437	-0.0418091
0.0112915	-0.0494385	-0.038147
0.0149536	-0.0488281	-0.0338745
0.0183105	-0.0485229	-0.0302124
0.0219727	-0.0485229	-0.0265503
0.0256348	-0.0488281	-0.0231934
0.0296021	-0.0488281	-0.0192261
0.0341797	-0.0485229	-0.0143433
0.039978	-0.0482178	-0.00823975
0.0460815	-0.0473022	-0.0012207
0.0512695	-0.0466919	0.00457764
0.0558472	-0.0457764	0.0100708
0.0592041	-0.0448608	0.0143433
0.062561	-0.043335	0.0192261
0.065918	-0.0421143	0.0238037
0.0686646	-0.0408936	0.027771
0.0695801	-0.0390625	0.0305176
0.0701904	-0.0372314	0.032959
0.071106	-0.0360107	0.0350952
0.072937	-0.0344849	0.0384521
0.0753784	-0.0326538	0.0427246
0.0784302	-0.0305176	0.0479126
0.0805664	-0.0289917	0.0515747
0.083313	-0.0274658	0.0558472
0.0872803	-0.0262451	0.0610352
0.0921631	-0.0253296	0.0668335
0.0958252	-0.0244141	0.0714111
0.0985718	-0.0234985	0.0750732
0.101318	-0.022583	0.0787354
0.104675	-0.0216675	0.0830078
0.108032	-0.020752	0.0872803
0.109863	-0.0192261	0.0906372
0.110474	-0.0177002	0.0927734
0.110168	-0.0158691	0.0942993
0.109558	-0.0140381	0.09552
0.107117	-0.0119019	0.0952148
0.101624	-0.00854492	0.0930786
0.0939941	-0.00518799	0.0888062
0.0863647	-0.00183105	0.0845337
0.0799561	0.0012207	0.0811768
0.0747681	0.00427246	0.0790405
0.0695801	0.00701904	0.0765991
0.0637817	0.00976563	0.0735474
0.057373	0.012207	0.0695801
0.0515747	0.0143433	0.065918
0.0473022	0.0158691	0.0631714
0.0445557	0.0167847	0.0613403
0.0424194	0.0164795	0.0588989
0.0387573	0.0161743	0.0549316
0.032959	0.0164795	0.0494385
0.0256348	0.0170898	0.0427246
0.0189209	0.0170898	0.0360107
0.012207	0.0164795	0.0286865
0.00579834	0.0152588	0.0210571
-0.000610352	0.0137329	0.0131226
-0.00701904	0.0119019	0.00488281
-0.0134277	0.00976563	-0.00366211
-0.0201416	0.00762939	-0.0125122
-0.027771	0.00549316	-0.0222778
-0.0366211	0.00274658	-0.0338745
-0.0454712	0	-0.0454712
-0.0534058	-0.00244141	-0.0558472
-0.0595093	-0.00518799	-0.0646973
-0.0653076	-0.00732422	-0.0726318
-0.0723267	-0.00854492	-0.0808716
-0.0793457	-0.0088501	-0.0881958
-0.0845337	-0.00946045	-0.0939941
-0.0872803	-0.010376	-0.0976563
-0.0881958	-0.0109863	-0.0991821
-0.088501	-0.0119019	-0.100403
-0.0866699	-0.0128174	-0.0994873
-0.0842285	-0.0137329	-0.0979614
-0.0817871	-0.0146484	-0.0964355
-0.0790405	-0.0164795	-0.09552
-0.0756836	-0.0189209	-0.0946045
-0.0720215	-0.0210571	-0.0930786
-0.0695801	-0.0228882	-0.0924683
-0.0686646	-0.0241089	-0.0927734
-0.0692749	-0.0250244	-0.0942993
-0.0717163	-0.0262451	-0.0979614
-0.0747681	-0.0268555	-0.101624
-0.0775146	-0.0271606	-0.104675
-0.0796509	-0.0271606	-0.106812
-0.0814819	-0.0274658	-0.108948
-0.0827026	-0.0274658	-0.110168
-0.0823975	-0.0271606	-0.109558
-0.0817871	-0.0271606	-0.108948
-0.0811768	-0.0265503	-0.107727
-0.0799561	-0.0262451	-0.106201
-0.0778198	-0.0259399	-0.10376
-0.0741577	-0.0253296	-0.0994873
-0.0708008	-0.0247192	-0.09552
-0.0686646	-0.0241089	-0.0927734
-0.0683594	-0.0234985	-0.0918579
-0.0683594	-0.0231934	-0.0915527
-0.0674438	-0.0228882	-0.090332
-0.067749	-0.0228882	-0.0906372
-0.0698853	-0.0228882	-0.0927734
-0.0717163	-0.0234985	-0.0952148
-0.071106	-0.0244141	-0.09552
-0.0695801	-0.0256348	-0.0952148
-0.0680542	-0.0271606	-0.0952148
-0.0662231	-0.0283813	-0.0946045
-0.0656128	-0.0292969	-0.0949097
-0.0653076	-0.0302124	-0.09552
-0.0643921	-0.0314331	-0.0958252
-0.0634766	-0.0323486	-0.0958252
-0.0631714	-0.0323486	-0.09552
-0.0634766	-0.0314331	-0.0949097
-0.0640869	-0.0302124	-0.0942993
-0.0646973	-0.0286865	-0.0933838
-0.0646973	-0.0268555	-0.0915527
-0.0643921	-0.0250244	-0.0894165
-0.0643921	-0.0234985	-0.0878906
-0.0640869	-0.0219727	-0.0860596
-0.0637817	-0.020752	-0.0845337
-0.0622559	-0.0195313	-0.0817871
-0.0598145	-0.0192261	-0.0790405
-0.0582886	-0.0195313	-0.0778198
-0.0579834	-0.0204468	-0.0784302
-0.057373	-0.0216675	-0.0790405
-0.0570679	-0.0228882	-0.0799561
-0.0585938	-0.0247192	-0.083313
-0.0601196	-0.0268555	-0.0869751
-0.0601196	-0.0286865	-0.0888062
-0.0595093	-0.0299072	-0.0894165
-0.0585938	-0.0305176	-0.0891113
-0.057373	-0.0308228	-0.0881958
-0.0558472	-0.0308228	-0.0866699
-0.0534058	-0.0308228	-0.0842285
-0.0500488	-0.0308228	-0.0808716
-0.0479126	-0.0305176	-0.0784302
-0.0482178	-0.0299072	-0.078125
-0.0500488	-0.0286865	-0.0787354
-0.0512695	-0.0274658	-0.0787354
-0.0515747	-0.0268555	-0.0784302
-0.0509644	-0.0265503	-0.0775146
-0.0506592	-0.0268555	-0.0775146
-0.0518799	-0.0274658	-0.0793457
-0.0524902	-0.0283813	-0.0808716
-0.0524902	-0.0289917	-0.0814819
-0.0521851	-0.0292969	-0.0814819
-0.0518799	-0.0292969	-0.0811768
-0.0512695	-0.0296021	-0.0808716
-0.0512695	-0.0302124	-0.0814819
-0.0524902	-0.0305176	-0.0830078
-0.0540161	-0.0302124	-0.0842285
-0.055542	-0.0305176	-0.0860596
-0.0561523	-0.0314331	-0.0875854
-0.0567627	-0.032959	-0.0897217
-0.0576782	-0.0341797	-0.0918579
-0.0579834	-0.0350952	-0.0930786
-0.0579834	-0.0360107	-0.0939941
-0.0582886	-0.0366211	-0.0949097
-0.0588989	-0.0372314	-0.0961304
-0.0595093	-0.0372314	-0.0967407
-0.0595093	-0.0369263	-0.0964355
-0.0595093	-0.0363159	-0.0958252
-0.0592041	-0.0344849	-0.093689
-0.0585938	-0.0326538	-0.0912476
-0.057373	-0.0317383	-0.0891113
-0.055542	-0.0314331	-0.0869751
-0.0534058	-0.0317383	-0.085144
-0.0506592	-0.0317383	-0.0823975
-0.0482178	-0.0314331	-0.0796509
-0.0454712	-0.0311279	-0.0765991
-0.0436401	-0.0314331	-0.0750732
-0.043335	-0.0317383	-0.0750732
-0.0445557	-0.0317383	-0.0762939
-0.0457764	-0.0314331	-0.0772095
-0.0466919	-0.0308228	-0.0775146
-0.0485229	-0.0302124	-0.0787354
-0.0506592	-0.0292969	-0.0799561
-0.0531006	-0.0283813	-0.0814819
-0.0564575	-0.027771	-0.0842285
-0.0610352	-0.0280762	-0.0891113
-0.0640869	-0.0286865	-0.0927734
-0.0650024	-0.0296021	-0.0946045
-0.0634766	-0.0308228	-0.0942993
-0.0613403	-0.0314331	-0.0927734
-0.0604248	-0.0320435	-0.0924683
-0.0592041	-0.0323486	-0.0915527
-0.057373	-0.0326538	-0.0900269
-0.0546265	-0.0332642	-0.0878906
-0.0512695	-0.0338745	-0.085144
-0.0466919	-0.0341797	-0.0808716
-0.0424194	-0.0341797	-0.0765991
-0.0405884	-0.0338745	-0.0744629
-0.0415039	-0.0335693	-0.0750732
-0.0442505	-0.0332642	-0.0775146
-0.0469971	-0.0332642	-0.0802612
-0.0485229	-0.0332642	-0.0817871
-0.0497437	-0.0335693	-0.083313
-0.0500488	-0.0338745	-0.0839233
-0.0497437	-0.0338745	-0.0836182
-0.0485229	-0.0338745	-0.0823975
-0.0463867	-0.0341797	-0.0805664
-0.0424194	-0.0344849	-0.0769043
-0.0375366	-0.0350952	-0.0726318
-0.0332642	-0.0344849	-0.067749
-0.0305176	-0.0326538	-0.0631714
-0.0289917	-0.0296021	-0.0585938
-0.0283813	-0.0262451	-0.0546265
-0.027771	-0.0222778	-0.0500488
-0.0265503	-0.017395	-0.0439453
-0.0250244	-0.0125122	-0.0375366
-0.0234985	-0.00701904	-0.0305176
-0.0234985	-0.000610352	-0.0241089
-0.0241089	0.00579834	-0.0183105
-0.0244141	0.0115967	-0.0128174
-0.0244141	0.0158691	-0.00854492
-0.0234985	0.0192261	-0.00427246
-0.022583	0.0222778	-0.000305176
-0.022583	0.0247192	0.00213623
-0.0228882	0.0265503	0.00366211
-0.022583	0.0283813	0.00579834
-0.0210571	0.0299072	0.0088501
-0.0170898	0.0308228	0.0137329
-0.010376	0.0305176	0.0201416
-0.00183105	0.0299072	0.0280762
0.00732422	0.0292969	0.0366211
0.0164795	0.0292969	0.0457764
0.0253296	0.0296021	0.0549316
0.0332642	0.0289917	0.0622559
0.0402832	0.0262451	0.0665283
0.0460815	0.0216675	0.067749
0.0485229	0.0164795	0.0650024
0.0463867	0.0109863	0.057373
0.0402832	0.00549316	0.0457764
0.0338745	-0.000610352	0.0332642
0.0283813	-0.00762939	0.020752
0.0234985	-0.0152588	0.00823975
0.0192261	-0.0231934	-0.00396729
0.0149536	-0.0302124	-0.0152588
0.010376	-0.0354004	-0.0250244
0.00579834	-0.0387573	-0.032959
0.00183105	-0.0405884	-0.0387573
-0.00274658	-0.0415039	-0.0442505
-0.00732422	-0.0418091	-0.0491333
-0.0125122	-0.0418091	-0.0543213
-0.0192261	-0.0421143	-0.0613403
-0.0265503	-0.0427246	-0.0692749
-0.0338745	-0.043335	-0.0772095
-0.0411987	-0.0439453	-0.085144
-0.0482178	-0.0442505	-0.0924683
-0.0540161	-0.045166	-0.0991821
-0.0582886	-0.0466919	-0.10498
-0.06073	-0.0491333	-0.109863
-0.0616455	-0.0509644	-0.11261
-0.0622559	-0.0521851	-0.114441
-0.0622559	-0.0527954	-0.115051
-0.0622559	-0.0537109	-0.115967
-0.0622559	-0.0549316	-0.117188
-0.0619507	-0.0564575	-0.118408
-0.0610352	-0.0582886	-0.119324
-0.0604248	-0.0598145	-0.120239
-0.0601196	-0.0616455	-0.121765
-0.0601196	-0.0628662	-0.122986
-0.0610352	-0.0637817	-0.124817
-0.0628662	-0.0634766	-0.126343
-0.0653076	-0.062561	-0.127869
-0.067749	-0.0601196	-0.127869
-0.0686646	-0.0570679	-0.125732
-0.0689697	-0.0543213	-0.123291
-0.0701904	-0.0515747	-0.121765
-0.0714111	-0.0497437	-0.121155
-0.072937	-0.0494385	-0.122375
-0.0741577	-0.0509644	-0.125122
-0.0750732	-0.0561523	-0.131226
-0.0744629	-0.0656128	-0.140076
-0.0726318	-0.078125	-0.150757
-0.0717163	-0.0924683	-0.164185
-0.072937	-0.106506	-0.179443
-0.0762939	-0.117798	-0.194092
-0.0772095	-0.124207	-0.201416
-0.0714111	-0.124512	-0.195923
-0.0561523	-0.118103	-0.174255
-0.0305176	-0.104675	-0.135193
0.00579834	-0.0836182	-0.0778198
0.0521851	-0.0540161	-0.00183105
0.109253	-0.0183105	0.0909424
0.179443	0.0228882	0.202332
0.262146	0.0686646	0.330811
0.355835	0.117188	0.473022
0.453186	0.163879	0.617065
0.546265	0.202332	0.748596
0.628662	0.230103	0.858765
0.695801	0.246277	0.942078
0.742798	0.249329	0.992126
0.765686	0.237122	1.00281
0.762024	0.20813	0.970154
0.72998	0.16449	0.89447
0.667419	0.112	0.779419
0.575256	0.0561523	0.631409
0.45929	0.000305176	0.459595
0.330505	-0.0537109	0.276794
0.201111	-0.101929	0.0991821
0.0778198	-0.140381	-0.062561
-0.0323486	-0.166626	-0.198975
-0.123901	-0.180664	-0.304565
-0.193481	-0.183716	-0.377197
-0.239563	-0.178223	-0.417786
-0.262451	-0.167847	-0.430298
-0.263367	-0.155334	-0.418701
-0.245667	-0.142517	-0.388184
-0.21637	-0.130005	-0.346375
-0.182495	-0.117798	-0.300293
-0.149841	-0.106201	-0.256042
-0.123291	-0.09552	-0.218811
-0.104675	-0.0857544	-0.19043
-0.0921631	-0.0762939	-0.168457
-0.0842285	-0.067749	-0.151978
-0.0814819	-0.0604248	-0.141907
-0.0823975	-0.0549316	-0.137329
-0.0854492	-0.0518799	-0.137329
-0.0900269	-0.0509644	-0.140991
-0.0946045	-0.0515747	-0.146179
-0.0985718	-0.0537109	-0.152283
-0.101013	-0.0567627	-0.157776
-0.101929	-0.0601196	-0.162048
-0.102234	-0.062561	-0.164795
-0.101929	-0.0640869	-0.166016
-0.100708	-0.0646973	-0.165405
-0.0997925	-0.0646973	-0.16449
-0.0994873	-0.0637817	-0.163269
-0.098877	-0.062561	-0.161438
-0.0979614	-0.0610352	-0.158997
-0.09552	-0.0595093	-0.155029
-0.0924683	-0.0582886	-0.150757
-0.0894165	-0.0570679	-0.146484
-0.0869751	-0.0567627	-0.143738
-0.0842285	-0.0564575	-0.140686
-0.0811768	-0.0561523	-0.137329
-0.078125	-0.0561523	-0.134277
-0.0756836	-0.0558472	-0.131531
-0.0735474	-0.0564575	-0.130005
-0.0704956	-0.0576782	-0.128174
-0.0680542	-0.0585938	-0.126648
-0.0668335	-0.0588989	-0.125732
-0.0668335	-0.0585938	-0.125427
-0.0668335	-0.0582886	-0.125122
-0.0665283	-0.0570679	-0.123596
-0.0653076	-0.0558472	-0.121155
-0.0634766	-0.0543213	-0.117798
-0.0610352	-0.0531006	-0.114136
-0.0579834	-0.0518799	-0.109863
-0.0549316	-0.0509644	-0.105896
-0.0515747	-0.0497437	-0.101318
-0.0482178	-0.0488281	-0.0970459
-0.0457764	-0.0482178	-0.0939941
-0.0436401	-0.0482178	-0.0918579
-0.0421143	-0.0482178	-0.090332
-0.0415039	-0.0482178	-0.0897217
-0.0411987	-0.0482178	-0.0894165
-0.0402832	-0.0488281	-0.0891113
-0.038147	-0.0497437	-0.0878906
-0.0363159	-0.0509644	-0.0872803
-0.0344849	-0.0518799	-0.0863647
-0.0314331	-0.0527954	-0.0842285
-0.0262451	-0.0540161	-0.0802612
-0.0195313	-0.0552368	-0.0747681
-0.0128174	-0.0567627	-0.0695801
-0.00823975	-0.0579834	-0.0662231
-0.00488281	-0.0592041	-0.0640869
-0.0012207	-0.0598145	-0.0610352
0.00244141	-0.0604248	-0.0579834
0.00579834	-0.06073	-0.0549316
0.0088501	-0.0613403	-0.0524902
0.0109863	-0.0610352	-0.0500488
0.0140381	-0.0616455	-0.0476074
0.0177002	-0.0619507	-0.0442505
0.0213623	-0.0616455	-0.0402832
0.0247192	-0.06073	-0.0360107
0.0286865	-0.0601196	-0.0314331
0.0332642	-0.0595093	-0.0262451
0.0378418	-0.0595093	-0.0216675
0.0421143	-0.0592041	-0.0170898
0.045166	-0.0582886	-0.0131226
0.0482178	-0.0576782	-0.00946045
0.0509644	-0.0570679	-0.00610352
0.0531006	-0.0567627	-0.00366211
0.0552368	-0.0567627	-0.00152588
0.0582886	-0.0570679	0.0012207
0.0622559	-0.0576782	0.00457764
0.0662231	-0.0582886	0.00793457
0.0695801	-0.0582886	0.0112915
0.0735474	-0.0579834	0.015564
0.0769043	-0.0570679	0.0198364
0.0799561	-0.0558472	0.0241089
0.083313	-0.0546265	0.0286865
0.0875854	-0.0534058	0.0341797
0.0918579	-0.0518799	0.039978
0.0961304	-0.0500488	0.0460815
0.0997925	-0.0482178	0.0515747
0.103455	-0.0460815	0.057373
0.106812	-0.0442505	0.062561
0.109253	-0.0421143	0.0671387
0.110779	-0.0402832	0.0704956
0.111389	-0.038147	0.0732422
0.111084	-0.0357056	0.0753784
0.110474	-0.0332642	0.0772095
0.109253	-0.0305176	0.0787354
0.107422	-0.0274658	0.0799561
0.105896	-0.0250244	0.0808716
0.104675	-0.022583	0.0820923
0.102539	-0.0195313	0.0830078
0.100098	-0.0161743	0.0839233
0.0979614	-0.0125122	0.0854492
0.0967407	-0.00915527	0.0875854
0.0952148	-0.00579834	0.0894165
0.0927734	-0.00244141	0.090332
0.088501	0.00152588	0.0900269
0.0827026	0.00549316	0.0881958
0.0756836	0.00915527	0.0848389
0.0680542	0.0131226	0.0811768
0.0604248	0.0161743	0.0765991
0.0512695	0.0189209	0.0701904
0.0424194	0.0213623	0.0637817
0.0344849	0.0228882	0.057373
0.0262451	0.0234985	0.0497437
0.0180054	0.0234985	0.0415039
0.010376	0.0222778	0.0326538
0.00335693	0.0198364	0.0231934
-0.00366211	0.0167847	0.0131226
-0.00946045	0.0137329	0.00427246
-0.0134277	0.00976563	-0.00366211
-0.0167847	0.00518799	-0.0115967
-0.0234985	0.000915527	-0.022583
-0.0326538	-0.00335693	-0.0360107
-0.0418091	-0.00701904	-0.0488281
-0.0494385	-0.010376	-0.0598145
-0.0549316	-0.0128174	-0.067749
-0.0598145	-0.0152588	-0.0750732
-0.0653076	-0.0167847	-0.0820923
-0.071106	-0.0177002	-0.0888062
-0.0747681	-0.0192261	-0.0939941
-0.0753784	-0.0210571	-0.0964355
-0.0753784	-0.022583	-0.0979614
-0.0759888	-0.0238037	-0.0997925
-0.0765991	-0.0256348	-0.102234
-0.0772095	-0.027771	-0.10498
-0.0772095	-0.0305176	-0.107727
-0.0784302	-0.0326538	-0.111084
-0.0817871	-0.0354004	-0.117188
-0.0866699	-0.0378418	-0.124512
-0.0924683	-0.0396729	-0.132141
-0.0979614	-0.039978	-0.137939
-0.102234	-0.0396729	-0.141907
-0.104065	-0.0393677	-0.143433
-0.105286	-0.0387573	-0.144043
-0.105591	-0.0375366	-0.143127
-0.10498	-0.0363159	-0.141296
-0.103149	-0.0350952	-0.138245
-0.100098	-0.0338745	-0.133972
-0.0964355	-0.0326538	-0.129089
-0.0924683	-0.0317383	-0.124207
-0.0888062	-0.0317383	-0.120544
-0.0854492	-0.0323486	-0.117798
-0.0830078	-0.0332642	-0.116272
-0.0805664	-0.0344849	-0.115051
-0.0787354	-0.0354004	-0.114136
-0.0778198	-0.0360107	-0.113831
-0.0775146	-0.0360107	-0.113525
-0.0765991	-0.0360107	-0.11261
-0.0750732	-0.0363159	-0.111389
-0.0738525	-0.0366211	-0.110474
-0.0732422	-0.0369263	-0.110168
-0.0735474	-0.0372314	-0.110779
-0.0741577	-0.0366211	-0.110779
-0.0741577	-0.0363159	-0.110474
-0.072937	-0.0360107	-0.108948
-0.0708008	-0.0360107	-0.106812
-0.0695801	-0.0363159	-0.105896
-0.0680542	-0.0363159	-0.10437
-0.0662231	-0.0363159	-0.102539
-0.0628662	-0.0360107	-0.098877
-0.0598145	-0.0354004	-0.0952148
-0.0576782	-0.0344849	-0.0921631
-0.0558472	-0.0338745	-0.0897217
-0.0546265	-0.0335693	-0.0881958
-0.0540161	-0.032959	-0.0869751
-0.0549316	-0.0326538	-0.0875854
-0.057373	-0.0323486	-0.0897217
-0.0595093	-0.032959	-0.0924683
-0.06073	-0.0344849	-0.0952148
-0.06073	-0.0357056	-0.0964355
-0.0604248	-0.0375366	-0.0979614
-0.0610352	-0.0393677	-0.100403
-0.0616455	-0.0402832	-0.101929
-0.062561	-0.0405884	-0.103149
-0.062561	-0.039978	-0.102539
-0.062561	-0.0384521	-0.101013
-0.0622559	-0.0363159	-0.0985718
-0.0616455	-0.0332642	-0.0949097
-0.0601196	-0.0302124	-0.090332
-0.0592041	-0.0271606	-0.0863647
-0.0585938	-0.0250244	-0.0836182
-0.0570679	-0.0238037	-0.0808716
-0.0546265	-0.0238037	-0.0784302
-0.0518799	-0.0247192	-0.0765991
-0.0497437	-0.0265503	-0.0762939
-0.0479126	-0.0292969	-0.0772095
-0.0473022	-0.0317383	-0.0790405
-0.0463867	-0.0335693	-0.0799561
-0.0448608	-0.03479	-0.0796509
-0.0442505	-0.0350952	-0.0793457
-0.0442505	-0.0344849	-0.0787354
-0.0439453	-0.0335693	-0.0775146
-0.043335	-0.0323486	-0.0756836
-0.0430298	-0.0308228	-0.0738525
-0.0430298	-0.0296021	-0.0726318
-0.0430298	-0.0289917	-0.0720215
-0.0436401	-0.0286865	-0.0723267
-0.0442505	-0.0292969	-0.0735474
-0.0445557	-0.0302124	-0.0747681
-0.045166	-0.0317383	-0.0769043
-0.0466919	-0.0326538	-0.0793457
-0.0485229	-0.0332642	-0.0817871
-0.0506592	-0.032959	-0.0836182
-0.0527954	-0.032959	-0.0857544
-0.0546265	-0.0332642	-0.0878906
-0.0558472	-0.0335693	-0.0894165
-0.0567627	-0.0341797	-0.0909424
-0.057373	-0.0341797	-0.0915527
-0.0582886	-0.0335693	-0.0918579
-0.0604248	-0.0332642	-0.093689
-0.062561	-0.0332642	-0.0958252
-0.0640869	-0.0332642	-0.0973511
-0.0634766	-0.0335693	-0.0970459
-0.0619507	-0.0335693	-0.09552
-0.0598145	-0.0332642	-0.0930786
-0.0567627	-0.032959	-0.0897217
-0.0534058	-0.032959	-0.0863647
-0.0506592	-0.0335693	-0.0842285
-0.0488281	-0.0344849	-0.083313
-0.0485229	-0.03479	-0.083313
-0.0509644	-0.03479	-0.0857544
-0.0543213	-0.0344849	-0.0888062
-0.057373	-0.0341797	-0.0915527
-0.0604248	-0.0335693	-0.0939941
-0.0640869	-0.0332642	-0.0973511
-0.065918	-0.0326538	-0.0985718
-0.0646973	-0.0320435	-0.0967407
-0.0622559	-0.0314331	-0.093689
-0.0595093	-0.0317383	-0.0912476
-0.0552368	-0.0326538	-0.0878906
-0.0500488	-0.03479	-0.0848389
-0.0442505	-0.0369263	-0.0811768
-0.0393677	-0.0387573	-0.078125
-0.0360107	-0.039978	-0.0759888
-0.03479	-0.0408936	-0.0756836
-0.0344849	-0.0415039	-0.0759888
-0.0360107	-0.0405884	-0.0765991
-0.0390625	-0.0387573	-0.0778198
-0.0418091	-0.0366211	-0.0784302
-0.0439453	-0.0341797	-0.078125
-0.0457764	-0.0314331	-0.0772095
-0.0466919	-0.0286865	-0.0753784
-0.0476074	-0.0262451	-0.0738525
-0.0479126	-0.0247192	-0.0726318
-0.0479126	-0.0238037	-0.0717163
-0.0482178	-0.0231934	-0.0714111
-0.0485229	-0.0228882	-0.0714111
-0.0482178	-0.0234985	-0.0717163
-0.0485229	-0.0238037	-0.0723267
-0.0485229	-0.0238037	-0.0723267
-0.0479126	-0.0238037	-0.0717163
-0.0460815	-0.0228882	-0.0689697
-0.043335	-0.0210571	-0.0643921
-0.039978	-0.0177002	-0.0576782
-0.0369263	-0.0137329	-0.0506592
-0.0338745	-0.00854492	-0.0424194
-0.0308228	-0.00305176	-0.0338745
-0.0283813	0.00274658	-0.0256348
-0.0253296	0.0088501	-0.0164795
-0.022583	0.0143433	-0.00823975
-0.0204468	0.0195313	-0.000915527
-0.0189209	0.0231934	0.00427246
-0.0180054	0.0259399	0.00793457
-0.017395	0.0271606	0.00976563
-0.0170898	0.027771	0.0106812
-0.0164795	0.0268555	0.010376
-0.0146484	0.0262451	0.0115967
-0.010376	0.0262451	0.0158691
-0.00488281	0.0265503	0.0216675
0.00244141	0.0265503	0.0289917
0.0112915	0.0265503	0.0378418
0.0198364	0.0268555	0.0466919
0.0283813	0.0286865	0.0570679
0.0360107	0.0311279	0.0671387
0.043335	0.0332642	0.0765991
0.0497437	0.0341797	0.0839233
0.0534058	0.032959	0.0863647
0.0549316	0.0305176	0.0854492
0.055542	0.0268555	0.0823975
0.0552368	0.0228882	0.078125
0.0527954	0.0183105	0.071106
0.0482178	0.0134277	0.0616455
0.0430298	0.00732422	0.050354
0.0369263	0.000610352	0.0375366
0.0292969	-0.00610352	0.0231934
0.0204468	-0.0115967	0.0088501
0.0112915	-0.015564	-0.00427246
0.00335693	-0.0186157	-0.0152588
-0.00274658	-0.020752	-0.0234985
-0.00946045	-0.0216675	-0.0311279
-0.017395	-0.0219727	-0.0393677
-0.0247192	-0.0219727	-0.0466919
-0.0302124	-0.0216675	-0.0518799
-0.0341797	-0.0219727	-0.0561523
-0.0369263	-0.0234985	-0.0604248
-0.039978	-0.0256348	-0.0656128
-0.0439453	-0.027771	-0.0717163
-0.0482178	-0.0305176	-0.0787354
-0.0531006	-0.0335693	-0.0866699
-0.0579834	-0.0375366	-0.09552
-0.0628662	-0.0411987	-0.104065
-0.0665283	-0.0448608	-0.111389
-0.0695801	-0.0479126	-0.117493
-0.0717163	-0.0500488	-0.121765
-0.0714111	-0.0512695	-0.122681
-0.0695801	-0.0518799	-0.12146
-0.0665283	-0.0521851	-0.118713
-0.0634766	-0.0527954	-0.116272
-0.0613403	-0.0527954	-0.114136
-0.0604248	-0.0518799	-0.112305
-0.0598145	-0.0506592	-0.110474
-0.0585938	-0.0494385	-0.108032
-0.0582886	-0.0485229	-0.106812
-0.0592041	-0.0479126	-0.107117
-0.06073	-0.0476074	-0.108337
-0.0631714	-0.0473022	-0.110474
-0.065918	-0.0469971	-0.112915
-0.0686646	-0.0466919	-0.115356
-0.0708008	-0.0463867	-0.117188
-0.0726318	-0.0466919	-0.119324
-0.0741577	-0.0494385	-0.123596
-0.0750732	-0.0558472	-0.13092
-0.0756836	-0.0656128	-0.141296
-0.0762939	-0.0772095	-0.153503
-0.0772095	-0.0897217	-0.166931
-0.0790405	-0.101013	-0.180054
-0.0811768	-0.109253	-0.19043
-0.0808716	-0.11261	-0.193481
-0.0762939	-0.109558	-0.185852
-0.0640869	-0.0985718	-0.162659
-0.0415039	-0.0799561	-0.12146
-0.00762939	-0.0534058	-0.0610352
0.0378418	-0.0195313	0.0183105
0.0952148	0.020752	0.115967
0.164795	0.0653076	0.230103
0.245361	0.114441	0.359802
0.334167	0.166321	0.500488
0.42511	0.214539	0.639648
0.512085	0.250244	0.762329
0.589294	0.270996	0.860291
0.650024	0.279846	0.929871
0.687561	0.2771	0.964661
0.698547	0.261841	0.960388
0.681152	0.23407	0.915222
0.63446	0.197449	0.831909
0.559082	0.156555	0.715637
0.460815	0.113831	0.574646
0.3479	0.0695801	0.41748
0.228577	0.0259399	0.254517
0.110474	-0.0152588	0.0952148
0.000915527	-0.0494385	-0.0485229
-0.0933838	-0.0756836	-0.169067
-0.167847	-0.0949097	-0.262756
-0.220032	-0.109558	-0.32959
-0.249023	-0.12085	-0.369873
-0.256653	-0.130615	-0.387268
-0.246887	-0.13855	-0.385437
-0.224915	-0.143738	-0.368652
-0.195007	-0.145569	-0.340576
-0.162964	-0.142517	-0.305481
-0.132751	-0.134888	-0.267639
-0.107117	-0.123291	-0.230408
-0.0875854	-0.109558	-0.197144
-0.0738525	-0.0949097	-0.168762
-0.0650024	-0.0805664	-0.145569
-0.0610352	-0.0674438	-0.128479
-0.0610352	-0.0561523	-0.117188
-0.0628662	-0.0479126	-0.110779
-0.0646973	-0.0427246	-0.107422
-0.0668335	-0.0405884	-0.107422
-0.0689697	-0.0405884	-0.109558
-0.0708008	-0.0421143	-0.112915
-0.071106	-0.0445557	-0.115662
-0.0701904	-0.0469971	-0.117188
-0.0674438	-0.0488281	-0.116272
-0.0640869	-0.050354	-0.114441
-0.06073	-0.0509644	-0.111694
-0.0570679	-0.0506592	-0.107727
-0.0537109	-0.0500488	-0.10376
-0.0506592	-0.0491333	-0.0997925
-0.0485229	-0.0482178	-0.0967407
-0.0469971	-0.0473022	-0.0942993
-0.045166	-0.0460815	-0.0912476
-0.0439453	-0.0454712	-0.0894165
-0.0436401	-0.0454712	-0.0891113
-0.0421143	-0.0463867	-0.088501
-0.0396729	-0.0479126	-0.0875854
-0.0372314	-0.0494385	-0.0866699
-0.03479	-0.0506592	-0.0854492
-0.0320435	-0.0512695	-0.083313
-0.0292969	-0.0515747	-0.0808716
-0.0259399	-0.0518799	-0.0778198
-0.0219727	-0.0518799	-0.0738525
-0.0183105	-0.0518799	-0.0701904
-0.0152588	-0.0515747	-0.0668335
-0.0131226	-0.0512695	-0.0643921
-0.0112915	-0.050354	-0.0616455
-0.00915527	-0.0497437	-0.0588989
-0.00732422	-0.0491333	-0.0564575
-0.00579834	-0.0491333	-0.0549316
-0.00488281	-0.0485229	-0.0534058
-0.00457764	-0.0476074	-0.0521851
-0.00457764	-0.0460815	-0.0506592
-0.00305176	-0.0439453	-0.0469971
-0.00152588	-0.0418091	-0.043335
-0.000610352	-0.0402832	-0.0408936
0.000610352	-0.0393677	-0.0387573
0.00305176	-0.0384521	-0.0354004
0.00640869	-0.0378418	-0.0314331
0.00976563	-0.0378418	-0.0280762
0.0134277	-0.0396729	-0.0262451
0.0180054	-0.0427246	-0.0247192
0.022583	-0.0466919	-0.0241089
0.0274658	-0.0506592	-0.0231934
0.0320435	-0.0543213	-0.0222778
0.0363159	-0.0576782	-0.0213623
0.0393677	-0.0604248	-0.0210571
0.0415039	-0.0622559	-0.020752
0.0427246	-0.0637817	-0.0210571
0.0445557	-0.0646973	-0.0201416
0.0463867	-0.0643921	-0.0180054
0.0485229	-0.0634766	-0.0149536
0.0512695	-0.0622559	-0.0109863
0.055542	-0.0610352	-0.00549316
0.0601196	-0.0601196	0
0.0643921	-0.0588989	0.00549316
0.0689697	-0.0579834	0.0109863
0.0738525	-0.0570679	0.0167847
0.0787354	-0.0567627	0.0219727
0.0836182	-0.0564575	0.0271606
0.0878906	-0.0564575	0.0314331
0.0918579	-0.0564575	0.0354004
0.09552	-0.0564575	0.0390625
0.0985718	-0.0564575	0.0421143
0.102844	-0.0567627	0.0460815
0.108032	-0.0570679	0.0509644
0.112915	-0.057373	0.055542
0.116882	-0.0576782	0.0592041
0.12085	-0.0576782	0.0631714
0.125427	-0.0579834	0.0674438
0.130615	-0.0582886	0.0723267
0.136719	-0.0595093	0.0772095
0.143738	-0.0616455	0.0820923
0.150452	-0.0631714	0.0872803
0.155334	-0.0643921	0.0909424
0.159607	-0.0643921	0.0952148
0.164795	-0.0640869	0.100708
0.171204	-0.0631714	0.108032
0.177612	-0.062561	0.115051
0.182495	-0.0613403	0.121155
0.184631	-0.0592041	0.125427
0.184937	-0.0567627	0.128174
0.183411	-0.0546265	0.128784
0.181274	-0.0527954	0.128479
0.178528	-0.0509644	0.127563
0.174255	-0.0488281	0.125427
0.169067	-0.0463867	0.122681
0.163269	-0.0439453	0.119324
0.157471	-0.0405884	0.116882
0.153198	-0.0363159	0.116882
0.149841	-0.0320435	0.117798
0.145569	-0.0268555	0.118713
0.140076	-0.0216675	0.118408
0.133972	-0.0158691	0.118103
0.1297	-0.00946045	0.120239
0.127258	-0.00305176	0.124207
0.124207	0.00305176	0.127258
0.119934	0.00823975	0.128174
0.114136	0.0128174	0.126953
0.107727	0.0167847	0.124512
0.0997925	0.0204468	0.120239
0.0915527	0.0238037	0.115356
0.083313	0.0265503	0.109863
0.0747681	0.0283813	0.103149
0.0656128	0.0289917	0.0946045
0.0549316	0.0292969	0.0842285
0.0436401	0.0289917	0.0726318
0.0335693	0.0286865	0.0622559
0.0253296	0.0274658	0.0527954
0.0164795	0.0259399	0.0424194
0.00671387	0.0247192	0.0314331
-0.00213623	0.0241089	0.0219727
-0.0100708	0.0247192	0.0146484
-0.015564	0.0250244	0.00946045
-0.0204468	0.0250244	0.00457764
-0.0253296	0.0253296	0
-0.0311279	0.0262451	-0.00488281
-0.0372314	0.0268555	-0.010376
-0.0411987	0.0274658	-0.0137329
-0.043335	0.0274658	-0.0158691
-0.045166	0.0271606	-0.0180054
-0.0469971	0.0262451	-0.020752
-0.0494385	0.0247192	-0.0247192
-0.0527954	0.0228882	-0.0299072
-0.0564575	0.0210571	-0.0354004
-0.0598145	0.0186157	-0.0411987
-0.0619507	0.0158691	-0.0460815
-0.0631714	0.0134277	-0.0497437
-0.0646973	0.0106812	-0.0540161
-0.0662231	0.0088501	-0.057373
-0.0671387	0.00732422	-0.0598145
-0.0680542	0.00701904	-0.0610352
-0.0689697	0.00823975	-0.06073
-0.0695801	0.00976563	-0.0598145
-0.0689697	0.0115967	-0.057373
-0.0680542	0.0131226	-0.0549316
-0.0671387	0.0149536	-0.0521851
-0.0674438	0.017395	-0.0500488
-0.0683594	0.0201416	-0.0482178
-0.0686646	0.022583	-0.0460815
-0.0686646	0.0244141	-0.0442505
-0.0695801	0.0247192	-0.0448608
-0.071106	0.0247192	-0.0463867
-0.0723267	0.0241089	-0.0482178
-0.0732422	0.0238037	-0.0494385
-0.0732422	0.0234985	-0.0497437
-0.072937	0.0228882	-0.0500488
-0.0720215	0.0219727	-0.0500488
-0.0714111	0.0210571	-0.050354
-0.0701904	0.0195313	-0.0506592
-0.067749	0.0180054	-0.0497437
-0.0634766	0.0167847	-0.0466919
-0.0576782	0.015564	-0.0421143
-0.0527954	0.0140381	-0.0387573
-0.0497437	0.0128174	-0.0369263
-0.0466919	0.0125122	-0.0341797
-0.0436401	0.0131226	-0.0305176
-0.0402832	0.0140381	-0.0262451
-0.0375366	0.0146484	-0.0228882
-0.0354004	0.0146484	-0.020752
-0.0335693	0.0146484	-0.0189209
-0.0335693	0.0146484	-0.0189209
-0.0350952	0.0143433	-0.020752
-0.0360107	0.0134277	-0.022583
-0.0350952	0.0119019	-0.0231934
-0.032959	0.00946045	-0.0234985
-0.0311279	0.00762939	-0.0234985
-0.0305176	0.00610352	-0.0244141
-0.0308228	0.00518799	-0.0256348
-0.0314331	0.00488281	-0.0265503
-0.0317383	0.00457764	-0.0271606
-0.0317383	0.00427246	-0.0274658
-0.0317383	0.00427246	-0.0274658
-0.0326538	0.00518799	-0.0274658
-0.0341797	0.00671387	-0.0274658
-0.0357056	0.00823975	-0.0274658
-0.0372314	0.00976563	-0.0274658
-0.0393677	0.010376	-0.0289917
-0.0408936	0.0109863	-0.0299072
-0.039978	0.0119019	-0.0280762
-0.038147	0.0131226	-0.0250244
-0.0375366	0.0146484	-0.0228882
-0.038147	0.0170898	-0.0210571
-0.0393677	0.0192261	-0.0201416
-0.0402832	0.0213623	-0.0189209
-0.039978	0.0228882	-0.0170898
-0.0402832	0.0231934	-0.0170898
-0.0408936	0.022583	-0.0183105
-0.0405884	0.0210571	-0.0195313
-0.039978	0.0195313	-0.0204468
-0.0393677	0.0180054	-0.0213623
-0.0387573	0.0164795	-0.0222778
-0.0369263	0.0152588	-0.0216675
-0.0341797	0.0140381	-0.0201416
-0.0320435	0.0131226	-0.0189209
-0.0302124	0.0131226	-0.0170898
-0.0289917	0.0137329	-0.0152588
-0.0296021	0.0143433	-0.0152588
-0.0323486	0.0152588	-0.0170898
-0.0350952	0.0161743	-0.0189209
-0.0363159	0.0164795	-0.0198364
-0.0369263	0.0152588	-0.0216675
-0.0378418	0.0128174	-0.0250244
-0.0387573	0.00976563	-0.0289917
-0.0393677	0.00701904	-0.0323486
-0.0393677	0.00427246	-0.0350952
-0.0387573	0.00213623	-0.0366211
-0.038147	0.000915527	-0.0372314
-0.0378418	-0.000305176	-0.038147
-0.0375366	-0.000610352	-0.038147
-0.0375366	0.000305176	-0.0372314
-0.0390625	0.00213623	-0.0369263
-0.0421143	0.00457764	-0.0375366
-0.045166	0.00701904	-0.038147
-0.0454712	0.0088501	-0.0366211
-0.043335	0.00946045	-0.0338745
-0.0405884	0.00915527	-0.0314331
-0.0396729	0.00823975	-0.0314331
-0.0390625	0.00762939	-0.0314331
-0.0384521	0.00701904	-0.0314331
-0.0378418	0.00671387	-0.0311279
-0.0375366	0.00610352	-0.0314331
-0.0384521	0.00610352	-0.0323486
-0.0408936	0.00640869	-0.0344849
-0.0439453	0.00701904	-0.0369263
-0.0482178	0.00823975	-0.039978
-0.0524902	0.00976563	-0.0427246
-0.055542	0.0112915	-0.0442505
-0.0579834	0.0119019	-0.0460815
-0.0595093	0.012207	-0.0473022
-0.0601196	0.0119019	-0.0482178
-0.0598145	0.0119019	-0.0479126
-0.0598145	0.012207	-0.0476074
-0.0601196	0.0128174	-0.0473022
-0.0604248	0.0134277	-0.0469971
-0.0592041	0.0143433	-0.0448608
-0.0585938	0.015564	-0.0430298
-0.057373	0.017395	-0.039978
-0.0561523	0.0195313	-0.0366211
-0.0552368	0.0213623	-0.0338745
-0.0531006	0.0228882	-0.0302124
-0.0491333	0.0238037	-0.0253296
-0.045166	0.0247192	-0.0204468
-0.0421143	0.0256348	-0.0164795
-0.0393677	0.0268555	-0.0125122
-0.0375366	0.0283813	-0.00915527
-0.038147	0.0302124	-0.00793457
-0.0390625	0.0320435	-0.00701904
-0.0390625	0.0344849	-0.00457764
-0.0384521	0.0372314	-0.0012207
-0.0372314	0.039978	0.00274658
-0.0360107	0.0430298	0.00701904
-0.0354004	0.0454712	0.0100708
-0.03479	0.0473022	0.0125122
-0.0326538	0.0488281	0.0161743
-0.0283813	0.0494385	0.0210571
-0.0222778	0.050354	0.0280762
-0.0152588	0.0515747	0.0363159
-0.00976563	0.0537109	0.0439453
-0.00549316	0.0552368	0.0497437
-0.000610352	0.0567627	0.0561523
0.00488281	0.0582886	0.0631714
0.0100708	0.0601196	0.0701904
0.015564	0.0619507	0.0775146
0.0210571	0.0631714	0.0842285
0.0268555	0.0631714	0.0900269
0.0323486	0.0616455	0.0939941
0.0363159	0.0585938	0.0949097
0.0393677	0.0543213	0.093689
0.0411987	0.0491333	0.090332
0.0405884	0.0436401	0.0842285
0.0378418	0.0378418	0.0756836
0.03479	0.0320435	0.0668335
0.0311279	0.0256348	0.0567627
0.0259399	0.0195313	0.0454712
0.0186157	0.0137329	0.0323486
0.0100708	0.00946045	0.0195313
0.00152588	0.00671387	0.00823975
-0.00549316	0.00488281	-0.000610352
-0.0106812	0.00366211	-0.00701904
-0.0161743	0.00305176	-0.0131226
-0.0219727	0.00305176	-0.0189209
-0.0283813	0.00396729	-0.0244141
-0.03479	0.00518799	-0.0296021
-0.0411987	0.00671387	-0.0344849
-0.0469971	0.00762939	-0.0393677
-0.0518799	0.00793457	-0.0439453
-0.0564575	0.00732422	-0.0491333
-0.0616455	0.00610352	-0.055542
-0.0662231	0.00457764	-0.0616455
-0.0692749	0.00244141	-0.0668335
-0.0701904	-0.000305176	-0.0704956
-0.0698853	-0.00366211	-0.0735474
-0.0689697	-0.00671387	-0.0756836
-0.0686646	-0.00976563	-0.0784302
-0.0680542	-0.012207	-0.0802612
-0.067749	-0.0146484	-0.0823975
-0.0689697	-0.0158691	-0.0848389
-0.0717163	-0.0161743	-0.0878906
-0.0747681	-0.015564	-0.090332
-0.0778198	-0.0149536	-0.0927734
-0.0802612	-0.0146484	-0.0949097
-0.0811768	-0.0143433	-0.09552
-0.0808716	-0.0143433	-0.0952148
-0.0811768	-0.0143433	-0.09552
-0.0814819	-0.0140381	-0.09552
-0.0817871	-0.0137329	-0.09552
-0.0817871	-0.0137329	-0.09552
-0.0808716	-0.0146484	-0.09552
-0.0805664	-0.0170898	-0.0976563
-0.0817871	-0.0219727	-0.10376
-0.0827026	-0.0302124	-0.112915
-0.083313	-0.0415039	-0.124817
-0.085144	-0.0534058	-0.13855
-0.0888062	-0.0650024	-0.153809
-0.093689	-0.0753784	-0.169067
-0.0976563	-0.0820923	-0.179749
-0.0973511	-0.0839233	-0.181274
-0.0915527	-0.0784302	-0.169983
-0.0796509	-0.0650024	-0.144653
-0.0588989	-0.043335	-0.102234
-0.0274658	-0.0134277	-0.0408936
0.015564	0.0238037	0.0393677
0.071106	0.0665283	0.137634
0.137939	0.113525	0.251465
0.213928	0.164795	0.378723
0.297241	0.220032	0.517273
0.383911	0.272217	0.656128
0.466614	0.311584	0.778198
0.53772	0.335999	0.873718
0.591125	0.347595	0.938721
0.623474	0.34668	0.970154
0.632324	0.331726	0.96405
0.615234	0.302734	0.917969
0.570374	0.263367	0.83374
0.498047	0.21759	0.715637
0.402222	0.167542	0.569763
0.290833	0.114746	0.405579
0.173035	0.0619507	0.234985
0.0579834	0.0128174	0.0708008
-0.0479126	-0.0286865	-0.0765991
-0.139771	-0.0604248	-0.200195
-0.211792	-0.083313	-0.295105
-0.262146	-0.0994873	-0.361633
-0.290222	-0.111084	-0.401306
-0.297241	-0.119324	-0.416565
-0.28656	-0.124817	-0.411377
-0.263672	-0.127869	-0.391541
-0.233765	-0.127563	-0.361328
-0.201721	-0.123596	-0.325317
-0.171509	-0.115662	-0.28717
-0.144958	-0.104675	-0.249634
-0.125732	-0.0912476	-0.21698
-0.114136	-0.0765991	-0.190735
-0.108337	-0.062561	-0.170898
-0.105591	-0.0506592	-0.15625
-0.104675	-0.0415039	-0.146179
-0.104675	-0.0357056	-0.140381
-0.10498	-0.0323486	-0.137329
-0.105286	-0.0311279	-0.136414
-0.106506	-0.0320435	-0.13855
-0.107117	-0.03479	-0.141907
-0.107117	-0.0384521	-0.145569
-0.105896	-0.0424194	-0.148315
-0.103149	-0.0460815	-0.149231
-0.0997925	-0.0491333	-0.148926
-0.0958252	-0.0512695	-0.147095
-0.0915527	-0.0518799	-0.143433
-0.0866699	-0.0515747	-0.138245
-0.0817871	-0.0509644	-0.132751
-0.0772095	-0.0506592	-0.127869
-0.0735474	-0.050354	-0.123901
-0.0704956	-0.0497437	-0.120239
-0.0683594	-0.0488281	-0.117188
-0.0668335	-0.0485229	-0.115356
-0.0665283	-0.0488281	-0.115356
-0.067749	-0.0485229	-0.116272
-0.0689697	-0.0476074	-0.116577
-0.0704956	-0.0466919	-0.117188
-0.0720215	-0.0457764	-0.117798
-0.072937	-0.045166	-0.118103
-0.0735474	-0.0448608	-0.118408
-0.071106	-0.045166	-0.116272
-0.0665283	-0.0460815	-0.11261
-0.0601196	-0.0473022	-0.107422
-0.0531006	-0.0485229	-0.101624
-0.0460815	-0.0497437	-0.0958252
-0.0393677	-0.0509644	-0.090332
-0.0332642	-0.0521851	-0.0854492
-0.0280762	-0.0531006	-0.0811768
-0.0253296	-0.0537109	-0.0790405
-0.0244141	-0.0534058	-0.0778198
-0.0253296	-0.0524902	-0.0778198
-0.0262451	-0.0521851	-0.0784302
-0.0274658	-0.0515747	-0.0790405
-0.027771	-0.0506592	-0.0784302
-0.0274658	-0.0500488	-0.0775146
-0.0256348	-0.0497437	-0.0753784
-0.0219727	-0.050354	-0.0723267
-0.0164795	-0.0518799	-0.0683594
-0.010376	-0.0534058	-0.0637817
-0.00335693	-0.055542	-0.0588989
0.00335693	-0.0582886	-0.0549316
0.00915527	-0.0613403	-0.0521851
0.0131226	-0.0634766	-0.050354
0.015564	-0.0650024	-0.0494385
0.0164795	-0.0662231	-0.0497437
0.0161743	-0.0671387	-0.0509644
0.015564	-0.0671387	-0.0515747
0.0149536	-0.0662231	-0.0512695
0.0149536	-0.0653076	-0.050354
0.0161743	-0.0646973	-0.0485229
0.0186157	-0.0637817	-0.045166
0.0228882	-0.0634766	-0.0405884
0.0280762	-0.0634766	-0.0354004
0.0335693	-0.0640869	-0.0305176
0.039978	-0.0656128	-0.0256348
0.0469971	-0.0668335	-0.0198364
0.055542	-0.0686646	-0.0131226
0.0643921	-0.0704956	-0.00610352
0.0720215	-0.0723267	-0.000305176
0.0775146	-0.0738525	0.00366211
0.0820923	-0.0756836	0.00640869
0.0872803	-0.0772095	0.0100708
0.0927734	-0.0790405	0.0137329
0.0973511	-0.0808716	0.0164795
0.101318	-0.083313	0.0180054
0.105286	-0.0854492	0.0198364
0.109863	-0.0878906	0.0219727
0.115356	-0.090332	0.0250244
0.121155	-0.0924683	0.0286865
0.127258	-0.093689	0.0335693
0.133362	-0.0942993	0.0390625
0.13916	-0.0946045	0.0445557
0.144043	-0.0942993	0.0497437
0.14801	-0.093689	0.0543213
0.151672	-0.0921631	0.0595093
0.154724	-0.090332	0.0643921
0.157166	-0.0888062	0.0683594
0.159302	-0.0869751	0.0723267
0.161133	-0.085144	0.0759888
0.163269	-0.0830078	0.0802612
0.163879	-0.0808716	0.0830078
0.162964	-0.0784302	0.0845337
0.160217	-0.0753784	0.0848389
0.158691	-0.0720215	0.0866699
0.158691	-0.0689697	0.0897217
0.158691	-0.065918	0.0927734
0.15686	-0.0628662	0.0939941
0.152588	-0.0598145	0.0927734
0.14801	-0.0564575	0.0915527
0.143738	-0.0521851	0.0915527
0.138245	-0.0473022	0.0909424
0.131531	-0.0418091	0.0897217
0.124207	-0.0360107	0.0881958
0.116272	-0.0296021	0.0866699
0.108948	-0.0231934	0.0857544
0.100403	-0.0158691	0.0845337
0.0891113	-0.00793457	0.0811768
0.0765991	0	0.0765991
0.0650024	0.00732422	0.0723267
0.0549316	0.0134277	0.0683594
0.0457764	0.0183105	0.0640869
0.0363159	0.0219727	0.0582886
0.0259399	0.0247192	0.0506592
0.015564	0.0265503	0.0421143
0.00579834	0.0271606	0.032959
-0.00305176	0.0268555	0.0238037
-0.0115967	0.0256348	0.0140381
-0.0201416	0.0244141	0.00427246
-0.0286865	0.0228882	-0.00579834
-0.0363159	0.0213623	-0.0149536
-0.043335	0.0201416	-0.0231934
-0.0497437	0.0195313	-0.0302124
-0.055542	0.0189209	-0.0366211
-0.0592041	0.0189209	-0.0402832
-0.0616455	0.0195313	-0.0421143
-0.0650024	0.0201416	-0.0448608
-0.0689697	0.0210571	-0.0479126
-0.0726318	0.0216675	-0.0509644
-0.0762939	0.0216675	-0.0546265
-0.0796509	0.0216675	-0.0579834
-0.0839233	0.0210571	-0.0628662
-0.0881958	0.020752	-0.0674438
-0.0918579	0.0201416	-0.0717163
-0.0939941	0.0195313	-0.0744629
-0.0952148	0.0186157	-0.0765991
-0.0958252	0.0180054	-0.0778198
-0.09552	0.0177002	-0.0778198
-0.0949097	0.017395	-0.0775146
-0.0939941	0.0177002	-0.0762939
-0.0927734	0.0177002	-0.0750732
-0.0909424	0.0183105	-0.0726318
-0.0897217	0.0192261	-0.0704956
-0.0897217	0.0204468	-0.0692749
-0.090332	0.0219727	-0.0683594
-0.0909424	0.0234985	-0.0674438
-0.0924683	0.0244141	-0.0680542
-0.0952148	0.0247192	-0.0704956
-0.0973511	0.0247192	-0.0726318
-0.0985718	0.0244141	-0.0741577
-0.0985718	0.0238037	-0.0747681
-0.0976563	0.022583	-0.0750732
-0.0964355	0.0213623	-0.0750732
-0.09552	0.0192261	-0.0762939
-0.0939941	0.017395	-0.0765991
-0.0912476	0.0164795	-0.0747681
-0.0891113	0.0158691	-0.0732422
-0.0866699	0.0152588	-0.0714111
-0.0848389	0.0149536	-0.0698853
-0.0827026	0.0146484	-0.0680542
-0.0805664	0.0149536	-0.0656128
-0.078125	0.0152588	-0.0628662
-0.0756836	0.015564	-0.0601196
-0.0750732	0.015564	-0.0595093
-0.0750732	0.0152588	-0.0598145
-0.0750732	0.0149536	-0.0601196
-0.0744629	0.0149536	-0.0595093
-0.0735474	0.0149536	-0.0585938
-0.0732422	0.0152588	-0.0579834
-0.0726318	0.015564	-0.0570679
-0.0726318	0.0158691	-0.0567627
-0.0717163	0.0161743	-0.055542
-0.0698853	0.0164795	-0.0534058
-0.067749	0.0164795	-0.0512695
-0.0656128	0.0161743	-0.0494385
-0.0628662	0.015564	-0.0473022
-0.06073	0.0149536	-0.0457764
-0.0588989	0.0140381	-0.0448608
-0.0576782	0.0131226	-0.0445557
-0.0570679	0.0128174	-0.0442505
-0.0558472	0.012207	-0.0436401
-0.0546265	0.0119019	-0.0427246
-0.0537109	0.012207	-0.0415039
-0.0549316	0.0131226	-0.0418091
-0.0558472	0.0137329	-0.0421143
-0.0552368	0.0134277	-0.0418091
-0.0534058	0.0131226	-0.0402832
-0.0512695	0.0128174	-0.0384521
-0.0488281	0.0131226	-0.0357056
-0.0457764	0.0134277	-0.0323486
-0.0424194	0.0134277	-0.0289917
-0.0402832	0.0128174	-0.0274658
-0.0393677	0.012207	-0.0271606
-0.0390625	0.0112915	-0.027771
-0.0384521	0.0106812	-0.027771
-0.0378418	0.0100708	-0.027771
-0.038147	0.00915527	-0.0289917
-0.0390625	0.00793457	-0.0311279
-0.0405884	0.00701904	-0.0335693
-0.0427246	0.00610352	-0.0366211
-0.045166	0.00488281	-0.0402832
-0.0473022	0.00335693	-0.0439453
-0.0485229	0.00244141	-0.0460815
-0.0485229	0.00152588	-0.0469971
-0.0482178	0.000915527	-0.0473022
-0.0479126	0.000305176	-0.0476074
-0.0463867	-0.000305176	-0.0466919
-0.0442505	-0.000915527	-0.045166
-0.043335	-0.0012207	-0.0445557
-0.043335	-0.00152588	-0.0448608
-0.0430298	-0.00183105	-0.0448608
-0.0427246	-0.00183105	-0.0445557
-0.0430298	-0.00152588	-0.0445557
-0.043335	-0.000915527	-0.0442505
-0.0424194	-0.000610352	-0.0430298
-0.0408936	0	-0.0408936
-0.0396729	0.000915527	-0.0387573
-0.0390625	0.00152588	-0.0375366
-0.0387573	0.00152588	-0.0372314
-0.0372314	0.0012207	-0.0360107
-0.0338745	0.000610352	-0.0332642
-0.0299072	0.000610352	-0.0292969
-0.0271606	0.000915527	-0.0262451
-0.0271606	0.00152588	-0.0256348
-0.0274658	0.000915527	-0.0265503
-0.027771	0	-0.027771
-0.0286865	-0.000305176	-0.0289917
-0.0292969	-0.000610352	-0.0299072
-0.0283813	-0.000915527	-0.0292969
-0.0274658	-0.00183105	-0.0292969
-0.0274658	-0.00335693	-0.0308228
-0.0271606	-0.00518799	-0.0323486
-0.0274658	-0.00640869	-0.0338745
-0.0274658	-0.00732422	-0.03479
-0.0283813	-0.00732422	-0.0357056
-0.0308228	-0.00701904	-0.0378418
-0.0323486	-0.00640869	-0.0387573
-0.0323486	-0.00579834	-0.038147
-0.0317383	-0.00488281	-0.0366211
-0.0314331	-0.00396729	-0.0354004
-0.0314331	-0.00305176	-0.0344849
-0.0311279	-0.00244141	-0.0335693
-0.0299072	-0.00213623	-0.0320435
-0.0280762	-0.00152588	-0.0296021
-0.0256348	-0.000305176	-0.0259399
-0.0228882	0.000610352	-0.0222778
-0.020752	0.000610352	-0.0201416
-0.0195313	0.000610352	-0.0189209
-0.0198364	0.000915527	-0.0189209
-0.0210571	0.00183105	-0.0192261
-0.0216675	0.00305176	-0.0186157
-0.0213623	0.00427246	-0.0170898
-0.0195313	0.00488281	-0.0146484
-0.0177002	0.00549316	-0.012207
-0.0161743	0.00579834	-0.010376
-0.0146484	0.00640869	-0.00823975
-0.0128174	0.00701904	-0.00579834
-0.0109863	0.00793457	-0.00305176
-0.0100708	0.0088501	-0.0012207
-0.00976563	0.0100708	0.000305176
-0.00915527	0.0112915	0.00213623
-0.00915527	0.0125122	0.00335693
-0.00946045	0.0134277	0.00396729
-0.010376	0.0149536	0.00457764
-0.0109863	0.0164795	0.00549316
-0.0109863	0.0186157	0.00762939
-0.010376	0.0210571	0.0106812
-0.0088501	0.0247192	0.0158691
-0.00640869	0.0289917	0.022583
-0.00366211	0.0332642	0.0296021
-0.000305176	0.0375366	0.0372314
0.00274658	0.0418091	0.0445557
0.00488281	0.0460815	0.0509644
0.00732422	0.050354	0.0576782
0.010376	0.0543213	0.0646973
0.0143433	0.0576782	0.0720215
0.0189209	0.0604248	0.0793457
0.0244141	0.0628662	0.0872803
0.0308228	0.0646973	0.09552
0.0375366	0.0671387	0.104675
0.0442505	0.0692749	0.113525
0.0515747	0.071106	0.122681
0.0604248	0.0726318	0.133057
0.0701904	0.0738525	0.144043
0.078125	0.0747681	0.152893
0.0845337	0.0750732	0.159607
0.0891113	0.0738525	0.162964
0.0927734	0.0714111	0.164185
0.0958252	0.0674438	0.163269
0.0973511	0.0622559	0.159607
0.0970459	0.0561523	0.153198
0.09552	0.0497437	0.145264
0.0933838	0.0424194	0.135803
0.0906372	0.0344849	0.125122
0.0860596	0.0265503	0.11261
0.0802612	0.0192261	0.0994873
0.0747681	0.0137329	0.088501
0.0695801	0.00915527	0.0787354
0.0631714	0.00671387	0.0698853
0.0561523	0.00579834	0.0619507
0.0485229	0.00640869	0.0549316
0.0411987	0.00793457	0.0491333
0.0341797	0.00976563	0.0439453
0.0280762	0.0112915	0.0393677
0.0231934	0.0128174	0.0360107
0.0177002	0.0143433	0.0320435
0.00976563	0.015564	0.0253296
0.0012207	0.0161743	0.017395
-0.00518799	0.0152588	0.0100708
-0.00915527	0.0128174	0.00366211
-0.012207	0.00915527	-0.00305176
-0.0152588	0.00457764	-0.0106812
-0.0180054	-0.000305176	-0.0183105
-0.0201416	-0.00488281	-0.0250244
-0.020752	-0.00915527	-0.0299072
-0.0195313	-0.0131226	-0.0326538
-0.0167847	-0.0167847	-0.0335693
-0.0137329	-0.0198364	-0.0335693
-0.0115967	-0.0219727	-0.0335693
-0.00976563	-0.0231934	-0.032959
-0.00976563	-0.0234985	-0.0332642
-0.0112915	-0.022583	-0.0338745
-0.0134277	-0.0213623	-0.03479
-0.0152588	-0.0201416	-0.0354004
-0.017395	-0.0189209	-0.0363159
-0.0204468	-0.0170898	-0.0375366
-0.0241089	-0.0146484	-0.0387573
-0.027771	-0.012207	-0.039978
-0.0296021	-0.010376	-0.039978
-0.0311279	-0.00946045	-0.0405884
-0.0323486	-0.010376	-0.0427246
-0.0335693	-0.0134277	-0.0469971
-0.0338745	-0.0195313	-0.0534058
-0.0344849	-0.0280762	-0.062561
-0.0366211	-0.0387573	-0.0753784
-0.0390625	-0.050354	-0.0894165
-0.0411987	-0.0601196	-0.101318
-0.0415039	-0.0656128	-0.107117
-0.0393677	-0.0646973	-0.104065
-0.0317383	-0.0570679	-0.0888062
-0.015564	-0.0421143	-0.0576782
0.0115967	-0.0195313	-0.00793457
0.0506592	0.0112915	0.0619507
0.102234	0.0488281	0.151062
0.166016	0.0912476	0.257263
0.241089	0.136414	0.377502
0.326233	0.184021	0.510254
0.418396	0.231934	0.65033
0.512085	0.273438	0.785522
0.599365	0.302124	0.901489
0.674438	0.317078	0.991516
0.732117	0.319214	1.05133
0.767517	0.307922	1.07544
0.776672	0.282898	1.05957
0.758362	0.244141	1.0025
0.71106	0.195007	0.906067
0.635986	0.13916	0.775146
0.535889	0.0805664	0.616455
0.418701	0.022583	0.441284
0.2948	-0.0320435	0.262756
0.172119	-0.0796509	0.0924683
0.0579834	-0.116272	-0.0582886
-0.0415039	-0.141602	-0.183105
-0.120544	-0.15625	-0.276794
-0.177002	-0.162048	-0.33905
-0.211487	-0.160522	-0.372009
-0.22583	-0.154419	-0.380249
-0.222473	-0.145264	-0.367737
-0.205383	-0.134277	-0.339661
-0.177917	-0.121765	-0.299683
-0.145569	-0.107422	-0.252991
-0.115051	-0.0915527	-0.206604
-0.0906372	-0.0759888	-0.166626
-0.072937	-0.0616455	-0.134583
-0.0610352	-0.0482178	-0.109253
-0.0543213	-0.0372314	-0.0915527
-0.0509644	-0.027771	-0.0787354
-0.0494385	-0.0204468	-0.0698853
-0.0497437	-0.015564	-0.0653076
-0.0509644	-0.0131226	-0.0640869
-0.0543213	-0.0128174	-0.0671387
-0.0585938	-0.0140381	-0.0726318
-0.0622559	-0.0164795	-0.0787354
-0.0637817	-0.0189209	-0.0827026
-0.0637817	-0.0210571	-0.0848389
-0.0631714	-0.0222778	-0.0854492
-0.0616455	-0.0228882	-0.0845337
-0.0592041	-0.0231934	-0.0823975
-0.0567627	-0.0228882	-0.0796509
-0.0546265	-0.022583	-0.0772095
-0.0515747	-0.0222778	-0.0738525
-0.0485229	-0.0219727	-0.0704956
-0.045166	-0.0210571	-0.0662231
-0.0427246	-0.0195313	-0.0622559
-0.0415039	-0.0177002	-0.0592041
-0.039978	-0.0164795	-0.0564575
-0.0384521	-0.015564	-0.0540161
-0.0375366	-0.0152588	-0.0527954
-0.0372314	-0.0152588	-0.0524902
-0.0366211	-0.0152588	-0.0518799
-0.0363159	-0.0152588	-0.0515747
-0.0357056	-0.0161743	-0.0518799
-0.0341797	-0.0177002	-0.0518799
-0.0326538	-0.0201416	-0.0527954
-0.0308228	-0.022583	-0.0534058
-0.0296021	-0.0244141	-0.0540161
-0.0280762	-0.0262451	-0.0543213
-0.0262451	-0.027771	-0.0540161
-0.0247192	-0.0289917	-0.0537109
-0.022583	-0.0302124	-0.0527954
-0.0204468	-0.0311279	-0.0515747
-0.0192261	-0.0308228	-0.0500488
-0.0189209	-0.0299072	-0.0488281
-0.0183105	-0.0289917	-0.0473022
-0.0170898	-0.0283813	-0.0454712
-0.015564	-0.0280762	-0.0436401
-0.0137329	-0.0274658	-0.0411987
-0.0112915	-0.0268555	-0.038147
-0.00823975	-0.0265503	-0.03479
-0.00488281	-0.0265503	-0.0314331
-0.0012207	-0.0268555	-0.0280762
0.00183105	-0.0268555	-0.0250244
0.00488281	-0.0268555	-0.0219727
0.00762939	-0.0271606	-0.0195313
0.00915527	-0.027771	-0.0186157
0.00976563	-0.0286865	-0.0189209
0.0106812	-0.0289917	-0.0183105
0.0115967	-0.0292969	-0.0177002
0.0128174	-0.0292969	-0.0164795
0.0137329	-0.0292969	-0.015564
0.0140381	-0.0292969	-0.0152588
0.0143433	-0.0299072	-0.015564
0.015564	-0.0308228	-0.0152588
0.0192261	-0.0314331	-0.012207
0.0250244	-0.0317383	-0.00671387
0.0314331	-0.0314331	0
0.0372314	-0.0314331	0.00579834
0.0436401	-0.0317383	0.0119019
0.0509644	-0.0326538	0.0183105
0.0582886	-0.0335693	0.0247192
0.0653076	-0.0350952	0.0302124
0.0720215	-0.0366211	0.0354004
0.0790405	-0.0384521	0.0405884
0.0854492	-0.0402832	0.045166
0.0909424	-0.0421143	0.0488281
0.0949097	-0.043335	0.0515747
0.0985718	-0.0445557	0.0540161
0.102539	-0.0448608	0.0576782
0.106506	-0.0445557	0.0619507
0.110474	-0.0436401	0.0668335
0.114441	-0.0421143	0.0723267
0.117188	-0.0396729	0.0775146
0.119629	-0.0369263	0.0827026
0.123596	-0.03479	0.0888062
0.127563	-0.0326538	0.0949097
0.13031	-0.0314331	0.098877
0.131836	-0.0302124	0.101624
0.132751	-0.0296021	0.103149
0.132751	-0.0289917	0.10376
0.132751	-0.0286865	0.104065
0.133972	-0.0286865	0.105286
0.134277	-0.0283813	0.105896
0.133057	-0.0274658	0.105591
0.132446	-0.0256348	0.106812
0.131226	-0.0234985	0.107727
0.130005	-0.0204468	0.109558
0.128479	-0.0164795	0.112
0.126953	-0.0119019	0.115051
0.125427	-0.00701904	0.118408
0.123596	-0.00213623	0.12146
0.12085	0.00244141	0.123291
0.117188	0.00671387	0.123901
0.114136	0.0100708	0.124207
0.110779	0.0134277	0.124207
0.106201	0.0161743	0.122375
0.100403	0.0192261	0.119629
0.0949097	0.0219727	0.116882
0.0888062	0.0244141	0.11322
0.0817871	0.0262451	0.108032
0.0747681	0.0280762	0.102844
0.0668335	0.0299072	0.0967407
0.0576782	0.0311279	0.0888062
0.0476074	0.0317383	0.0793457
0.0372314	0.0320435	0.0692749
0.0274658	0.0314331	0.0588989
0.0186157	0.0305176	0.0491333
0.0106812	0.0286865	0.0393677
0.00305176	0.0259399	0.0289917
-0.00427246	0.0228882	0.0186157
-0.0119019	0.0198364	0.00793457
-0.0192261	0.0170898	-0.00213623
-0.0250244	0.0152588	-0.00976563
-0.0302124	0.0137329	-0.0164795
-0.0363159	0.0119019	-0.0244141
-0.0448608	0.00976563	-0.0350952
-0.0543213	0.00823975	-0.0460815
-0.0616455	0.00732422	-0.0543213
-0.0662231	0.00640869	-0.0598145
-0.0692749	0.00518799	-0.0640869
-0.0717163	0.00366211	-0.0680542
-0.0744629	0.00183105	-0.0726318
-0.0762939	0	-0.0762939
-0.0769043	-0.00213623	-0.0790405
-0.0756836	-0.00396729	-0.0796509
-0.0738525	-0.00549316	-0.0793457
-0.0732422	-0.00610352	-0.0793457
-0.0744629	-0.00610352	-0.0805664
-0.0765991	-0.00579834	-0.0823975
-0.0796509	-0.00549316	-0.085144
-0.083313	-0.00549316	-0.0888062
-0.0872803	-0.00549316	-0.0927734
-0.0915527	-0.00549316	-0.0970459
-0.0949097	-0.00518799	-0.100098
-0.0973511	-0.00488281	-0.102234
-0.0991821	-0.00518799	-0.10437
-0.101013	-0.00610352	-0.107117
-0.103149	-0.00762939	-0.110779
-0.104675	-0.00946045	-0.114136
-0.10498	-0.010376	-0.115356
-0.104065	-0.0106812	-0.114746
-0.103149	-0.00976563	-0.112915
-0.101624	-0.00823975	-0.109863
-0.0997925	-0.00701904	-0.106812
-0.0973511	-0.00610352	-0.103455
-0.0939941	-0.00518799	-0.0991821
-0.0906372	-0.00457764	-0.0952148
-0.0875854	-0.00427246	-0.0918579
-0.0857544	-0.00366211	-0.0894165
-0.0845337	-0.00366211	-0.0881958
-0.0836182	-0.00396729	-0.0875854
-0.0827026	-0.00488281	-0.0875854
-0.083313	-0.00549316	-0.0888062
-0.085144	-0.00549316	-0.0906372
-0.0872803	-0.00549316	-0.0927734
-0.0894165	-0.00549316	-0.0949097
-0.090332	-0.00518799	-0.09552
-0.0906372	-0.00488281	-0.09552
-0.0900269	-0.00457764	-0.0946045
-0.0888062	-0.00366211	-0.0924683
-0.0866699	-0.00305176	-0.0897217
-0.0845337	-0.00213623	-0.0866699
-0.0836182	-0.0012207	-0.0848389
-0.0827026	-0.000305176	-0.0830078
-0.0820923	0.000610352	-0.0814819
-0.0814819	0.00152588	-0.0799561
-0.0808716	0.00305176	-0.0778198
-0.0802612	0.00457764	-0.0756836
-0.0799561	0.00549316	-0.0744629
-0.0805664	0.00549316	-0.0750732
-0.0820923	0.00549316	-0.0765991
-0.0836182	0.00518799	-0.0784302
-0.0839233	0.00457764	-0.0793457
-0.083313	0.00335693	-0.0799561
-0.0830078	0.00183105	-0.0811768
-0.0823975	0.000305176	-0.0820923
-0.0811768	-0.00152588	-0.0827026
-0.0802612	-0.00396729	-0.0842285
-0.0796509	-0.00610352	-0.0857544
-0.0796509	-0.00762939	-0.0872803
-0.0784302	-0.00854492	-0.0869751
-0.0747681	-0.0088501	-0.0836182
-0.0704956	-0.00946045	-0.0799561
-0.0668335	-0.00946045	-0.0762939
-0.0650024	-0.0088501	-0.0738525
-0.0646973	-0.00793457	-0.0726318
-0.0634766	-0.00701904	-0.0704956
-0.0616455	-0.00610352	-0.067749
-0.0604248	-0.00549316	-0.065918
-0.06073	-0.00579834	-0.0665283
-0.0619507	-0.00610352	-0.0680542
-0.0646973	-0.00671387	-0.0714111
-0.067749	-0.00732422	-0.0750732
-0.0695801	-0.00823975	-0.0778198
-0.0708008	-0.00915527	-0.0799561
-0.0714111	-0.0109863	-0.0823975
-0.071106	-0.0128174	-0.0839233
-0.0708008	-0.0149536	-0.0857544
-0.0701904	-0.0167847	-0.0869751
-0.0701904	-0.0180054	-0.0881958
-0.0701904	-0.0195313	-0.0897217
-0.0698853	-0.020752	-0.0906372
-0.0686646	-0.0216675	-0.090332
-0.0674438	-0.0222778	-0.0897217
-0.0671387	-0.022583	-0.0897217
-0.067749	-0.0219727	-0.0897217
-0.0683594	-0.020752	-0.0891113
-0.0680542	-0.0189209	-0.0869751
-0.0674438	-0.017395	-0.0848389
-0.0665283	-0.015564	-0.0820923
-0.0653076	-0.0137329	-0.0790405
-0.0646973	-0.0125122	-0.0772095
-0.0653076	-0.0109863	-0.0762939
-0.0671387	-0.00976563	-0.0769043
-0.0698853	-0.00946045	-0.0793457
-0.072937	-0.00915527	-0.0820923
-0.0744629	-0.0088501	-0.083313
-0.0747681	-0.0088501	-0.0836182
-0.0756836	-0.00854492	-0.0842285
-0.0756836	-0.00854492	-0.0842285
-0.0741577	-0.00854492	-0.0827026
-0.0720215	-0.0088501	-0.0808716
-0.0698853	-0.00915527	-0.0790405
-0.0680542	-0.00976563	-0.0778198
-0.0656128	-0.0100708	-0.0756836
-0.0631714	-0.0106812	-0.0738525
-0.0613403	-0.0112915	-0.0726318
-0.0604248	-0.012207	-0.0726318
-0.0610352	-0.0131226	-0.0741577
-0.0622559	-0.0143433	-0.0765991
-0.0640869	-0.0152588	-0.0793457
-0.0646973	-0.0167847	-0.0814819
-0.0634766	-0.0177002	-0.0811768
-0.0616455	-0.0180054	-0.0796509
-0.0610352	-0.0180054	-0.0790405
-0.0619507	-0.017395	-0.0793457
-0.0637817	-0.0167847	-0.0805664
-0.0650024	-0.0158691	-0.0808716
-0.0653076	-0.0143433	-0.0796509
-0.0653076	-0.0125122	-0.0778198
-0.0656128	-0.0109863	-0.0765991
-0.0662231	-0.0100708	-0.0762939
-0.0668335	-0.00946045	-0.0762939
-0.0680542	-0.00946045	-0.0775146
-0.0683594	-0.00976563	-0.078125
-0.0665283	-0.0109863	-0.0775146
-0.0622559	-0.0125122	-0.0747681
-0.0585938	-0.0143433	-0.072937
-0.0561523	-0.015564	-0.0717163
-0.0549316	-0.0164795	-0.0714111
-0.0543213	-0.017395	-0.0717163
-0.0537109	-0.017395	-0.071106
-0.0524902	-0.0170898	-0.0695801
-0.0518799	-0.0167847	-0.0686646
-0.0515747	-0.0161743	-0.067749
-0.0524902	-0.0158691	-0.0683594
-0.0537109	-0.0149536	-0.0686646
-0.0552368	-0.0143433	-0.0695801
-0.057373	-0.0137329	-0.071106
-0.0601196	-0.0134277	-0.0735474
-0.0634766	-0.0128174	-0.0762939
-0.0665283	-0.0125122	-0.0790405
-0.0695801	-0.0125122	-0.0820923
-0.0726318	-0.0125122	-0.085144
-0.0759888	-0.0125122	-0.088501
-0.0787354	-0.0125122	-0.0912476
-0.0805664	-0.0125122	-0.0930786
-0.0811768	-0.0125122	-0.093689
-0.0808716	-0.0125122	-0.0933838
-0.0796509	-0.012207	-0.0918579
-0.0772095	-0.0119019	-0.0891113
-0.0738525	-0.0119019	-0.0857544
-0.0695801	-0.0119019	-0.0814819
-0.0646973	-0.0115967	-0.0762939
-0.0601196	-0.0112915	-0.0714111
-0.0561523	-0.0106812	-0.0668335
-0.0540161	-0.0100708	-0.0640869
-0.0534058	-0.00915527	-0.062561
-0.0534058	-0.0088501	-0.0622559
-0.0540161	-0.00915527	-0.0631714
-0.0549316	-0.00946045	-0.0643921
-0.0564575	-0.00946045	-0.065918
-0.0601196	-0.0088501	-0.0689697
-0.0646973	-0.00854492	-0.0732422
-0.0692749	-0.00854492	-0.0778198
-0.0726318	-0.0088501	-0.0814819
-0.0750732	-0.00915527	-0.0842285
-0.0769043	-0.00915527	-0.0860596
-0.0778198	-0.00915527	-0.0869751
-0.0765991	-0.00915527	-0.0857544
-0.0738525	-0.0088501	-0.0827026
-0.071106	-0.00793457	-0.0790405
-0.067749	-0.00671387	-0.0744629
-0.0637817	-0.00549316	-0.0692749
-0.0588989	-0.00366211	-0.062561
-0.0531006	-0.000610352	-0.0537109
-0.0466919	0.00305176	-0.0436401
-0.0415039	0.00732422	-0.0341797
-0.038147	0.012207	-0.0259399
-0.0369263	0.0167847	-0.0201416
-0.0363159	0.0213623	-0.0149536
-0.0366211	0.0250244	-0.0115967
-0.0384521	0.0286865	-0.00976563
-0.0405884	0.0314331	-0.00915527
-0.0421143	0.0332642	-0.0088501
-0.0418091	0.0332642	-0.00854492
-0.038147	0.0317383	-0.00640869
-0.0332642	0.0286865	-0.00457764
-0.0271606	0.0247192	-0.00244141
-0.0195313	0.0201416	0.000610352
-0.00976563	0.0158691	0.00610352
0.00274658	0.0115967	0.0143433
0.0158691	0.00762939	0.0234985
0.0283813	0.00427246	0.0326538
0.0387573	0.00152588	0.0402832
0.0454712	0.000305176	0.0457764
0.0488281	0	0.0488281
0.0491333	0.000305176	0.0494385
0.0469971	0.000915527	0.0479126
0.0427246	0.0012207	0.0439453
0.0369263	0.0012207	0.038147
0.0308228	-0.000305176	0.0305176
0.0253296	-0.00274658	0.022583
0.0201416	-0.00640869	0.0137329
0.015564	-0.0109863	0.00457764
0.0112915	-0.0167847	-0.00549316
0.00793457	-0.022583	-0.0146484
0.00579834	-0.0280762	-0.0222778
0.00518799	-0.032959	-0.027771
0.00396729	-0.0366211	-0.0326538
0.00213623	-0.0384521	-0.0363159
-0.0012207	-0.0384521	-0.0396729
-0.00549316	-0.0366211	-0.0421143
-0.0106812	-0.0341797	-0.0448608
-0.0167847	-0.0308228	-0.0476074
-0.0238037	-0.0271606	-0.0509644
-0.0308228	-0.0238037	-0.0546265
-0.0378418	-0.0213623	-0.0592041
-0.0436401	-0.0198364	-0.0634766
-0.0488281	-0.0192261	-0.0680542
-0.0534058	-0.0198364	-0.0732422
-0.0576782	-0.0216675	-0.0793457
-0.06073	-0.0244141	-0.085144
-0.0628662	-0.0274658	-0.090332
-0.0643921	-0.0305176	-0.0949097
-0.0646973	-0.0332642	-0.0979614
-0.0640869	-0.0357056	-0.0997925
-0.062561	-0.0375366	-0.100098
-0.0610352	-0.0384521	-0.0994873
-0.0619507	-0.0387573	-0.100708
-0.0643921	-0.038147	-0.102539
-0.0686646	-0.0372314	-0.105896
-0.0732422	-0.0357056	-0.108948
-0.0772095	-0.0344849	-0.111694
-0.0790405	-0.0332642	-0.112305
-0.0802612	-0.0326538	-0.112915
-0.0820923	-0.0326538	-0.114746
-0.0842285	-0.032959	-0.117188
-0.085144	-0.0335693	-0.118713
-0.0854492	-0.0341797	-0.119629
-0.0845337	-0.03479	-0.119324
-0.0827026	-0.0357056	-0.118408
-0.0802612	-0.038147	-0.118408
-0.0784302	-0.0418091	-0.120239
-0.0775146	-0.0476074	-0.125122
-0.0762939	-0.055542	-0.131836
-0.0759888	-0.0643921	-0.140381
-0.0769043	-0.0738525	-0.150757
-0.0787354	-0.0820923	-0.160828
-0.0796509	-0.0872803	-0.166931
-0.0765991	-0.0875854	-0.164185
-0.0668335	-0.0817871	-0.148621
-0.0497437	-0.0701904	-0.119934
-0.0241089	-0.0509644	-0.0750732
0.0106812	-0.0222778	-0.0115967
0.057373	0.0146484	0.0720215
0.118713	0.0561523	0.174866
0.194397	0.101318	0.295715
0.281372	0.149841	0.431213
0.377197	0.2005	0.577698
0.475159	0.249329	0.724487
0.567932	0.291138	0.85907
0.649109	0.322571	0.97168
0.713806	0.340271	1.05408
0.758057	0.342102	1.10016
0.776978	0.327148	1.10413
0.767822	0.29541	1.06323
0.72937	0.248413	0.977783
0.661926	0.189819	0.851746
0.568237	0.125427	0.693665
0.454407	0.0592041	0.513611
0.329895	-0.00549316	0.324402
0.204468	-0.0640869	0.140381
0.0866699	-0.112305	-0.0256348
-0.0170898	-0.147095	-0.164185
-0.102844	-0.167236	-0.270081
-0.168457	-0.173645	-0.342102
-0.213318	-0.169067	-0.382385
-0.236511	-0.156555	-0.393066
-0.239258	-0.13916	-0.378418
-0.225525	-0.119019	-0.344543
-0.200806	-0.098877	-0.299683
-0.171814	-0.0805664	-0.25238
-0.144348	-0.0650024	-0.209351
-0.121765	-0.0515747	-0.17334
-0.105896	-0.0402832	-0.146179
-0.0964355	-0.0308228	-0.127258
-0.0924683	-0.0234985	-0.115967
-0.0915527	-0.0183105	-0.109863
-0.0921631	-0.0161743	-0.108337
-0.093689	-0.0167847	-0.110474
-0.09552	-0.0189209	-0.114441
-0.0967407	-0.0222778	-0.119019
-0.0970459	-0.0253296	-0.122375
-0.0949097	-0.0280762	-0.122986
-0.0909424	-0.0305176	-0.12146
-0.0863647	-0.0323486	-0.118713
-0.0827026	-0.0332642	-0.115967
-0.0802612	-0.0332642	-0.113525
-0.0787354	-0.0326538	-0.111389
-0.0778198	-0.0317383	-0.109558
-0.0778198	-0.0308228	-0.108643
-0.0790405	-0.0302124	-0.109253
-0.0799561	-0.0299072	-0.109863
-0.0802612	-0.0296021	-0.109863
-0.0808716	-0.0296021	-0.110474
-0.0802612	-0.0292969	-0.109558
-0.0775146	-0.0283813	-0.105896
-0.0732422	-0.0274658	-0.100708
-0.0692749	-0.0262451	-0.09552
-0.0653076	-0.0253296	-0.0906372
-0.0616455	-0.0247192	-0.0863647
-0.0585938	-0.0238037	-0.0823975
-0.0561523	-0.0228882	-0.0790405
-0.055542	-0.0219727	-0.0775146
-0.0558472	-0.0210571	-0.0769043
-0.0564575	-0.0204468	-0.0769043
-0.0579834	-0.0198364	-0.0778198
-0.06073	-0.0198364	-0.0805664
-0.0643921	-0.0201416	-0.0845337
-0.0680542	-0.020752	-0.0888062
-0.0704956	-0.0210571	-0.0915527
-0.0704956	-0.0213623	-0.0918579
-0.0683594	-0.0222778	-0.0906372
-0.0643921	-0.0238037	-0.0881958
-0.0592041	-0.0256348	-0.0848389
-0.0543213	-0.0271606	-0.0814819
-0.0494385	-0.027771	-0.0772095
-0.0436401	-0.0286865	-0.0723267
-0.0378418	-0.0299072	-0.067749
-0.0323486	-0.0311279	-0.0634766
-0.0280762	-0.0317383	-0.0598145
-0.0259399	-0.0326538	-0.0585938
-0.0253296	-0.0332642	-0.0585938
-0.0234985	-0.0341797	-0.0576782
-0.0210571	-0.0354004	-0.0564575
-0.0195313	-0.0363159	-0.0558472
-0.0195313	-0.0372314	-0.0567627
-0.0195313	-0.0378418	-0.057373
-0.0192261	-0.0378418	-0.0570679
-0.0180054	-0.0378418	-0.0558472
-0.015564	-0.0369263	-0.0524902
-0.0134277	-0.0363159	-0.0497437
-0.0112915	-0.0354004	-0.0466919
-0.0088501	-0.03479	-0.0436401
-0.00488281	-0.0335693	-0.0384521
0.0012207	-0.0326538	-0.0314331
0.00823975	-0.0314331	-0.0231934
0.0146484	-0.0305176	-0.0158691
0.0201416	-0.0299072	-0.00976563
0.0250244	-0.0296021	-0.00457764
0.0296021	-0.0296021	0
0.03479	-0.0296021	0.00518799
0.0402832	-0.0299072	0.010376
0.0454712	-0.0302124	0.0152588
0.050354	-0.0305176	0.0198364
0.0543213	-0.0305176	0.0238037
0.0579834	-0.0305176	0.0274658
0.0619507	-0.0302124	0.0317383
0.0662231	-0.0292969	0.0369263
0.0714111	-0.027771	0.0436401
0.0778198	-0.0259399	0.0518799
0.0842285	-0.0241089	0.0601196
0.0894165	-0.0219727	0.0674438
0.0930786	-0.0198364	0.0732422
0.0958252	-0.0177002	0.078125
0.0979614	-0.0161743	0.0817871
0.0991821	-0.0149536	0.0842285
0.100403	-0.0143433	0.0860596
0.102539	-0.0140381	0.088501
0.106506	-0.0140381	0.0924683
0.110474	-0.0146484	0.0958252
0.113525	-0.0146484	0.098877
0.117188	-0.0143433	0.102844
0.12085	-0.0134277	0.107422
0.123596	-0.012207	0.111389
0.125427	-0.010376	0.115051
0.126343	-0.00854492	0.117798
0.125732	-0.00579834	0.119934
0.123596	-0.00274658	0.12085
0.120239	0.0012207	0.12146
0.115967	0.00518799	0.121155
0.111084	0.00915527	0.120239
0.105896	0.0128174	0.118713
0.100403	0.0161743	0.116577
0.0958252	0.0195313	0.115356
0.0915527	0.0228882	0.114441
0.0872803	0.0262451	0.113525
0.083313	0.0286865	0.112
0.0793457	0.0305176	0.109863
0.0753784	0.0308228	0.106201
0.0704956	0.0308228	0.101318
0.0631714	0.0308228	0.0939941
0.0540161	0.0305176	0.0845337
0.0436401	0.0299072	0.0735474
0.0332642	0.0289917	0.0622559
0.0228882	0.027771	0.0506592
0.012207	0.0259399	0.038147
0.00213623	0.0234985	0.0256348
-0.00762939	0.020752	0.0131226
-0.0158691	0.0177002	0.00183105
-0.0241089	0.0143433	-0.00976563
-0.0323486	0.0106812	-0.0216675
-0.0390625	0.00701904	-0.0320435
-0.043335	0.00305176	-0.0402832
-0.0473022	-0.0012207	-0.0485229
-0.0512695	-0.00518799	-0.0564575
-0.0552368	-0.0088501	-0.0640869
-0.0595093	-0.0115967	-0.071106
-0.062561	-0.0143433	-0.0769043
-0.0637817	-0.0170898	-0.0808716
-0.0637817	-0.0195313	-0.083313
-0.0634766	-0.0210571	-0.0845337
-0.0631714	-0.0222778	-0.0854492
-0.0619507	-0.0231934	-0.085144
-0.0610352	-0.0238037	-0.0848389
-0.0601196	-0.0241089	-0.0842285
-0.0598145	-0.0241089	-0.0839233
-0.06073	-0.0241089	-0.0848389
-0.062561	-0.0241089	-0.0866699
-0.0653076	-0.0250244	-0.090332
-0.0680542	-0.0259399	-0.0939941
-0.0714111	-0.0265503	-0.0979614
-0.0747681	-0.0274658	-0.102234
-0.0775146	-0.0286865	-0.106201
-0.0796509	-0.0302124	-0.109863
-0.0817871	-0.0320435	-0.113831
-0.0836182	-0.0332642	-0.116882
-0.0842285	-0.0344849	-0.118713
-0.0823975	-0.0357056	-0.118103
-0.0796509	-0.0366211	-0.116272
-0.0775146	-0.0372314	-0.114746
-0.0753784	-0.0372314	-0.11261
-0.0732422	-0.0369263	-0.110168
-0.0708008	-0.0360107	-0.106812
-0.0686646	-0.03479	-0.103455
-0.0662231	-0.0338745	-0.100098
-0.0640869	-0.0338745	-0.0979614
-0.0610352	-0.0344849	-0.09552
-0.0585938	-0.03479	-0.0933838
-0.0579834	-0.0344849	-0.0924683
-0.0592041	-0.0338745	-0.0930786
-0.0613403	-0.0338745	-0.0952148
-0.0634766	-0.0341797	-0.0976563
-0.0650024	-0.0350952	-0.100098
-0.0656128	-0.0360107	-0.101624
-0.0662231	-0.0366211	-0.102844
-0.0668335	-0.0363159	-0.103149
-0.0671387	-0.0357056	-0.102844
-0.067749	-0.0357056	-0.103455
-0.0674438	-0.0357056	-0.103149
-0.0665283	-0.0357056	-0.102234
-0.0650024	-0.0360107	-0.101013
-0.0634766	-0.0360107	-0.0994873
-0.0616455	-0.0360107	-0.0976563
-0.0604248	-0.0357056	-0.0961304
-0.0598145	-0.03479	-0.0946045
-0.0601196	-0.0338745	-0.0939941
-0.0595093	-0.0326538	-0.0921631
-0.0582886	-0.0311279	-0.0894165
-0.0576782	-0.0296021	-0.0872803
-0.0564575	-0.027771	-0.0842285
-0.055542	-0.0265503	-0.0820923
-0.0546265	-0.0256348	-0.0802612
-0.0543213	-0.0250244	-0.0793457
-0.0521851	-0.0244141	-0.0765991
-0.0494385	-0.0244141	-0.0738525
-0.0466919	-0.0250244	-0.0717163
-0.0448608	-0.0256348	-0.0704956
-0.0448608	-0.0259399	-0.0708008
-0.045166	-0.0262451	-0.0714111
-0.0448608	-0.0265503	-0.0714111
-0.0439453	-0.0271606	-0.071106
-0.0427246	-0.0274658	-0.0701904
-0.0418091	-0.0271606	-0.0689697
-0.0415039	-0.0268555	-0.0683594
-0.0430298	-0.0265503	-0.0695801
-0.0448608	-0.0262451	-0.071106
-0.0463867	-0.0256348	-0.0720215
-0.0482178	-0.0256348	-0.0738525
-0.0494385	-0.0262451	-0.0756836
-0.0497437	-0.027771	-0.0775146
-0.0491333	-0.0296021	-0.0787354
-0.0466919	-0.0317383	-0.0784302
-0.0445557	-0.0341797	-0.0787354
-0.0430298	-0.0366211	-0.0796509
-0.0418091	-0.0387573	-0.0805664
-0.0405884	-0.0396729	-0.0802612
-0.0393677	-0.0396729	-0.0790405
-0.0384521	-0.0390625	-0.0775146
-0.0384521	-0.0378418	-0.0762939
-0.0396729	-0.0363159	-0.0759888
-0.0418091	-0.0344849	-0.0762939
-0.0436401	-0.032959	-0.0765991
-0.0454712	-0.0320435	-0.0775146
-0.0469971	-0.0314331	-0.0784302
-0.0482178	-0.0317383	-0.0799561
-0.0482178	-0.0335693	-0.0817871
-0.0482178	-0.0363159	-0.0845337
-0.0482178	-0.0387573	-0.0869751
-0.0485229	-0.0405884	-0.0891113
-0.0482178	-0.0415039	-0.0897217
-0.0466919	-0.0421143	-0.0888062
-0.0442505	-0.0415039	-0.0857544
-0.0421143	-0.0402832	-0.0823975
-0.0408936	-0.0390625	-0.0799561
-0.0396729	-0.0375366	-0.0772095
-0.0384521	-0.0360107	-0.0744629
-0.0366211	-0.0341797	-0.0708008
-0.0338745	-0.0326538	-0.0665283
-0.0308228	-0.0320435	-0.0628662
-0.0286865	-0.0320435	-0.06073
-0.0289917	-0.0320435	-0.0610352
-0.0317383	-0.0323486	-0.0640869
-0.0350952	-0.032959	-0.0680542
-0.0369263	-0.0338745	-0.0708008
-0.0384521	-0.0350952	-0.0735474
-0.0408936	-0.0360107	-0.0769043
-0.0442505	-0.0372314	-0.0814819
-0.0476074	-0.038147	-0.0857544
-0.0509644	-0.0393677	-0.090332
-0.0534058	-0.0402832	-0.093689
-0.0546265	-0.0408936	-0.09552
-0.0543213	-0.0415039	-0.0958252
-0.0531006	-0.0415039	-0.0946045
-0.0515747	-0.0408936	-0.0924683
-0.0497437	-0.039978	-0.0897217
-0.0476074	-0.0390625	-0.0866699
-0.0445557	-0.0384521	-0.0830078
-0.0418091	-0.0378418	-0.0796509
-0.0393677	-0.0372314	-0.0765991
-0.038147	-0.0372314	-0.0753784
-0.0378418	-0.0372314	-0.0750732
-0.038147	-0.0378418	-0.0759888
-0.0393677	-0.0384521	-0.0778198
-0.0421143	-0.0384521	-0.0805664
-0.0454712	-0.0387573	-0.0842285
-0.0482178	-0.0393677	-0.0875854
-0.0506592	-0.0396729	-0.090332
-0.0506592	-0.039978	-0.0906372
-0.0479126	-0.0408936	-0.0888062
-0.0445557	-0.0411987	-0.0857544
-0.0427246	-0.0402832	-0.0830078
-0.0418091	-0.0387573	-0.0805664
-0.039978	-0.0372314	-0.0772095
-0.0369263	-0.0366211	-0.0735474
-0.0350952	-0.0357056	-0.0708008
-0.0354004	-0.0344849	-0.0698853
-0.0375366	-0.032959	-0.0704956
-0.0396729	-0.0317383	-0.0714111
-0.0411987	-0.0308228	-0.0720215
-0.0424194	-0.0308228	-0.0732422
-0.043335	-0.0311279	-0.0744629
-0.0436401	-0.0323486	-0.0759888
-0.043335	-0.0338745	-0.0772095
-0.0427246	-0.0354004	-0.078125
-0.0411987	-0.0372314	-0.0784302
-0.0387573	-0.0384521	-0.0772095
-0.0369263	-0.0396729	-0.0765991
-0.03479	-0.0405884	-0.0753784
-0.0332642	-0.0411987	-0.0744629
-0.0326538	-0.0415039	-0.0741577
-0.032959	-0.0418091	-0.0747681
-0.0344849	-0.0418091	-0.0762939
-0.0363159	-0.0418091	-0.078125
-0.0378418	-0.0411987	-0.0790405
-0.0387573	-0.0408936	-0.0796509
-0.039978	-0.0405884	-0.0805664
-0.0418091	-0.0405884	-0.0823975
-0.0436401	-0.0411987	-0.0848389
-0.0448608	-0.0424194	-0.0872803
-0.0454712	-0.0436401	-0.0891113
-0.0463867	-0.0445557	-0.0909424
-0.0473022	-0.0454712	-0.0927734
-0.0479126	-0.0463867	-0.0942993
-0.0485229	-0.0469971	-0.09552
-0.0488281	-0.0476074	-0.0964355
-0.0479126	-0.0479126	-0.0958252
-0.0476074	-0.0476074	-0.0952148
-0.0485229	-0.0469971	-0.09552
-0.0497437	-0.0466919	-0.0964355
-0.0518799	-0.0463867	-0.0982666
-0.0549316	-0.0454712	-0.100403
-0.0570679	-0.0442505	-0.101318
-0.0588989	-0.0430298	-0.101929
-0.06073	-0.0424194	-0.103149
-0.0622559	-0.0424194	-0.104675
-0.0634766	-0.0430298	-0.106506
-0.0634766	-0.0436401	-0.107117
-0.0616455	-0.0448608	-0.106506
-0.057373	-0.0466919	-0.104065
-0.0515747	-0.0485229	-0.100098
-0.0457764	-0.050354	-0.0961304
-0.0408936	-0.0518799	-0.0927734
-0.0366211	-0.0534058	-0.0900269
-0.032959	-0.0546265	-0.0875854
-0.0302124	-0.055542	-0.0857544
-0.0299072	-0.0552368	-0.085144
-0.0317383	-0.0537109	-0.0854492
-0.0360107	-0.0515747	-0.0875854
-0.0402832	-0.0491333	-0.0894165
-0.0436401	-0.0473022	-0.0909424
-0.0469971	-0.0460815	-0.0930786
-0.0506592	-0.045166	-0.0958252
-0.0531006	-0.045166	-0.0982666
-0.0543213	-0.0454712	-0.0997925
-0.0546265	-0.0460815	-0.100708
-0.0531006	-0.0466919	-0.0997925
-0.0488281	-0.0473022	-0.0961304
-0.0439453	-0.0482178	-0.0921631
-0.0393677	-0.0485229	-0.0878906
-0.0354004	-0.0485229	-0.0839233
-0.0317383	-0.0476074	-0.0793457
-0.027771	-0.0454712	-0.0732422
-0.0241089	-0.0427246	-0.0668335
-0.0213623	-0.0393677	-0.06073
-0.0198364	-0.0350952	-0.0549316
-0.0189209	-0.0308228	-0.0497437
-0.0192261	-0.0265503	-0.0457764
-0.0198364	-0.022583	-0.0424194
-0.020752	-0.0186157	-0.0393677
-0.020752	-0.0152588	-0.0360107
-0.0195313	-0.0125122	-0.0320435
-0.017395	-0.0106812	-0.0280762
-0.0143433	-0.0109863	-0.0253296
-0.0100708	-0.0128174	-0.0228882
-0.00427246	-0.0167847	-0.0210571
0.00244141	-0.0210571	-0.0186157
0.010376	-0.0250244	-0.0146484
0.0186157	-0.0286865	-0.0100708
0.0253296	-0.0314331	-0.00610352
0.0302124	-0.0335693	-0.00335693
0.0332642	-0.0357056	-0.00244141
0.0360107	-0.0372314	-0.0012207
0.0375366	-0.038147	-0.000610352
0.038147	-0.0372314	0.000915527
0.0363159	-0.0354004	0.000915527
0.0326538	-0.0332642	-0.000610352
0.0286865	-0.0320435	-0.00335693
0.0253296	-0.0326538	-0.00732422
0.0228882	-0.0350952	-0.012207
0.020752	-0.0390625	-0.0183105
0.0189209	-0.0436401	-0.0247192
0.0177002	-0.0473022	-0.0296021
0.0170898	-0.0506592	-0.0335693
0.0167847	-0.0543213	-0.0375366
0.015564	-0.0576782	-0.0421143
0.0125122	-0.0610352	-0.0485229
0.00915527	-0.0631714	-0.0540161
0.00640869	-0.0637817	-0.057373
0.00274658	-0.062561	-0.0598145
-0.00305176	-0.0598145	-0.0628662
-0.0115967	-0.0561523	-0.067749
-0.0204468	-0.0527954	-0.0732422
-0.0274658	-0.0494385	-0.0769043
-0.0323486	-0.0463867	-0.0787354
-0.0366211	-0.0436401	-0.0802612
-0.0411987	-0.0411987	-0.0823975
-0.0457764	-0.0390625	-0.0848389
-0.0497437	-0.0375366	-0.0872803
-0.0524902	-0.0366211	-0.0891113
-0.0537109	-0.0363159	-0.0900269
-0.0543213	-0.0363159	-0.0906372
-0.0543213	-0.0366211	-0.0909424
-0.0549316	-0.0366211	-0.0915527
-0.0558472	-0.0366211	-0.0924683
-0.0564575	-0.0372314	-0.093689
-0.0567627	-0.0384521	-0.0952148
-0.0576782	-0.0390625	-0.0967407
-0.0598145	-0.0390625	-0.098877
-0.0613403	-0.0390625	-0.100403
-0.0616455	-0.0396729	-0.101318
-0.0613403	-0.0405884	-0.101929
-0.0610352	-0.0415039	-0.102539
-0.0610352	-0.0427246	-0.10376
-0.0610352	-0.0436401	-0.104675
-0.0610352	-0.0442505	-0.105286
-0.0604248	-0.0448608	-0.105286
-0.0598145	-0.0454712	-0.105286
-0.0595093	-0.0463867	-0.105896
-0.0595093	-0.0482178	-0.107727
-0.0598145	-0.0518799	-0.111694
-0.0601196	-0.0579834	-0.118103
-0.06073	-0.0665283	-0.127258
-0.062561	-0.0769043	-0.139465
-0.0653076	-0.0881958	-0.153503
-0.0695801	-0.0979614	-0.167542
-0.0714111	-0.104065	-0.175476
-0.0683594	-0.104065	-0.172424
-0.0595093	-0.0976563	-0.157166
-0.0418091	-0.0842285	-0.126038
-0.0134277	-0.0628662	-0.0762939
0.0253296	-0.0323486	-0.00701904
0.0772095	0.00671387	0.0839233
0.142212	0.0515747	0.193787
0.219421	0.100708	0.320129
0.308228	0.152893	0.461121
0.404663	0.206909	0.611572
0.501404	0.257568	0.758972
0.591125	0.301208	0.892334
0.66803	0.334167	1.0022
0.728149	0.353088	1.08124
0.766602	0.35614	1.12274
0.779724	0.342407	1.12213
0.766602	0.310974	1.07758
0.727234	0.264282	0.991516
0.6604	0.206604	0.867004
0.567017	0.143738	0.710754
0.453186	0.0784302	0.531616
0.329895	0.0140381	0.343933
0.208435	-0.045166	0.163269
0.0967407	-0.0946045	0.00213623
-0.000915527	-0.13092	-0.131836
-0.0827026	-0.153198	-0.235901
-0.14679	-0.161743	-0.308533
-0.191345	-0.159302	-0.350647
-0.214539	-0.148926	-0.363464
-0.21698	-0.133972	-0.350952
-0.202637	-0.116272	-0.318909
-0.177917	-0.098877	-0.276794
-0.149841	-0.0830078	-0.232849
-0.123901	-0.0692749	-0.193176
-0.103455	-0.057373	-0.160828
-0.0891113	-0.0466919	-0.135803
-0.0802612	-0.0378418	-0.118103
-0.0753784	-0.0314331	-0.106812
-0.0738525	-0.0274658	-0.101318
-0.0756836	-0.0256348	-0.101318
-0.0802612	-0.0256348	-0.105896
-0.0854492	-0.027771	-0.11322
-0.0900269	-0.0305176	-0.120544
-0.0930786	-0.032959	-0.126038
-0.0942993	-0.03479	-0.129089
-0.0930786	-0.0357056	-0.128784
-0.0897217	-0.0366211	-0.126343
-0.0854492	-0.0375366	-0.122986
-0.0820923	-0.0372314	-0.119324
-0.0799561	-0.0357056	-0.115662
-0.0784302	-0.0335693	-0.112
-0.0769043	-0.0317383	-0.108643
-0.0744629	-0.0308228	-0.105286
-0.0714111	-0.0299072	-0.101318
-0.0692749	-0.0292969	-0.0985718
-0.0689697	-0.0286865	-0.0976563
-0.0701904	-0.0283813	-0.0985718
-0.0717163	-0.027771	-0.0994873
-0.071106	-0.0274658	-0.0985718
-0.0689697	-0.0274658	-0.0964355
-0.0671387	-0.0274658	-0.0946045
-0.0656128	-0.0280762	-0.093689
-0.0640869	-0.0286865	-0.0927734
-0.0619507	-0.0286865	-0.0906372
-0.0588989	-0.0286865	-0.0875854
-0.0558472	-0.0286865	-0.0845337
-0.0531006	-0.0286865	-0.0817871
-0.0500488	-0.0292969	-0.0793457
-0.0457764	-0.0299072	-0.0756836
-0.0421143	-0.0302124	-0.0723267
-0.0393677	-0.0305176	-0.0698853
-0.038147	-0.0308228	-0.0689697
-0.0372314	-0.0311279	-0.0683594
-0.0363159	-0.0317383	-0.0680542
-0.0360107	-0.0326538	-0.0686646
-0.0360107	-0.0335693	-0.0695801
-0.0354004	-0.0344849	-0.0698853
-0.0344849	-0.0354004	-0.0698853
-0.0341797	-0.0360107	-0.0701904
-0.0341797	-0.0366211	-0.0708008
-0.0338745	-0.0372314	-0.071106
-0.0326538	-0.0384521	-0.071106
-0.0311279	-0.0396729	-0.0708008
-0.0302124	-0.0405884	-0.0708008
-0.0299072	-0.0411987	-0.071106
-0.0308228	-0.0415039	-0.0723267
-0.0323486	-0.0411987	-0.0735474
-0.0335693	-0.0411987	-0.0747681
-0.0332642	-0.0415039	-0.0747681
-0.0311279	-0.0421143	-0.0732422
-0.0262451	-0.0418091	-0.0680542
-0.0198364	-0.0411987	-0.0610352
-0.0119019	-0.0402832	-0.0521851
-0.00457764	-0.0396729	-0.0442505
0.00274658	-0.0393677	-0.0366211
0.0109863	-0.0387573	-0.027771
0.0192261	-0.0375366	-0.0183105
0.0265503	-0.0363159	-0.00976563
0.0323486	-0.0350952	-0.00274658
0.0366211	-0.0344849	0.00213623
0.0396729	-0.0338745	0.00579834
0.0415039	-0.0338745	0.00762939
0.0436401	-0.0341797	0.00946045
0.0466919	-0.0350952	0.0115967
0.0500488	-0.0363159	0.0137329
0.0546265	-0.0378418	0.0167847
0.0601196	-0.0393677	0.020752
0.0662231	-0.0411987	0.0250244
0.0726318	-0.0421143	0.0305176
0.0784302	-0.0424194	0.0360107
0.0836182	-0.0418091	0.0418091
0.088501	-0.0411987	0.0473022
0.0927734	-0.039978	0.0527954
0.0964355	-0.0384521	0.0579834
0.0991821	-0.0360107	0.0631714
0.100708	-0.0335693	0.0671387
0.102539	-0.0314331	0.071106
0.10437	-0.0289917	0.0753784
0.105591	-0.0271606	0.0784302
0.108643	-0.0262451	0.0823975
0.112915	-0.0259399	0.0869751
0.116882	-0.0259399	0.0909424
0.119629	-0.0256348	0.0939941
0.121765	-0.0250244	0.0967407
0.123596	-0.0238037	0.0997925
0.125427	-0.0222778	0.103149
0.126648	-0.0201416	0.106506
0.126648	-0.0180054	0.108643
0.126648	-0.015564	0.111084
0.125427	-0.0128174	0.11261
0.123596	-0.0100708	0.113525
0.121155	-0.00701904	0.114136
0.118713	-0.00366211	0.115051
0.115662	0.000305176	0.115967
0.112	0.00366211	0.115662
0.108643	0.00732422	0.115967
0.105286	0.0109863	0.116272
0.100403	0.015564	0.115967
0.0933838	0.0198364	0.11322
0.0860596	0.0238037	0.109863
0.0775146	0.0271606	0.104675
0.0674438	0.0299072	0.0973511
0.057373	0.0320435	0.0894165
0.0469971	0.0326538	0.0796509
0.0354004	0.0320435	0.0674438
0.0253296	0.0305176	0.0558472
0.0183105	0.0274658	0.0457764
0.0125122	0.0241089	0.0366211
0.00701904	0.0204468	0.0274658
0.00183105	0.0164795	0.0183105
-0.00305176	0.0128174	0.00976563
-0.00671387	0.00915527	0.00244141
-0.00976563	0.00579834	-0.00396729
-0.0119019	0.00244141	-0.00946045
-0.0146484	-0.0012207	-0.0158691
-0.0198364	-0.00427246	-0.0241089
-0.0271606	-0.00610352	-0.0332642
-0.0360107	-0.00732422	-0.043335
-0.0457764	-0.00854492	-0.0543213
-0.0552368	-0.00946045	-0.0646973
-0.0643921	-0.0100708	-0.0744629
-0.072937	-0.010376	-0.083313
-0.0802612	-0.010376	-0.0906372
-0.0854492	-0.010376	-0.0958252
-0.088501	-0.0106812	-0.0991821
-0.0897217	-0.0112915	-0.101013
-0.0894165	-0.0125122	-0.101929
-0.0878906	-0.0152588	-0.103149
-0.085144	-0.0189209	-0.104065
-0.0811768	-0.0228882	-0.104065
-0.078125	-0.0271606	-0.105286
-0.0765991	-0.0314331	-0.108032
-0.0765991	-0.0350952	-0.111694
-0.0765991	-0.0384521	-0.115051
-0.0756836	-0.0411987	-0.116882
-0.0756836	-0.0430298	-0.118713
-0.0778198	-0.0439453	-0.121765
-0.0808716	-0.0448608	-0.125732
-0.083313	-0.045166	-0.128479
-0.0848389	-0.045166	-0.130005
-0.0848389	-0.0445557	-0.129395
-0.0839233	-0.0442505	-0.128174
-0.0839233	-0.0436401	-0.127563
-0.0848389	-0.0430298	-0.127869
-0.0854492	-0.0430298	-0.128479
-0.0848389	-0.043335	-0.128174
-0.083313	-0.043335	-0.126648
-0.0823975	-0.043335	-0.125732
-0.0823975	-0.0427246	-0.125122
-0.0830078	-0.0424194	-0.125427
-0.0823975	-0.0418091	-0.124207
-0.0811768	-0.0411987	-0.122375
-0.0796509	-0.0402832	-0.119934
-0.0787354	-0.0393677	-0.118103
-0.0787354	-0.038147	-0.116882
-0.0796509	-0.0369263	-0.116577
-0.0805664	-0.0354004	-0.115967
-0.0814819	-0.0338745	-0.115356
-0.0823975	-0.0323486	-0.114746
-0.0839233	-0.0314331	-0.115356
-0.0866699	-0.0308228	-0.117493
-0.0869751	-0.0308228	-0.117798
-0.0842285	-0.0308228	-0.115051
-0.0811768	-0.0302124	-0.111389
-0.0796509	-0.0289917	-0.108643
-0.0787354	-0.027771	-0.106506
-0.0765991	-0.0280762	-0.104675
-0.0726318	-0.0286865	-0.101318
-0.0686646	-0.0292969	-0.0979614
-0.0662231	-0.0296021	-0.0958252
-0.0646973	-0.0299072	-0.0946045
-0.0628662	-0.0302124	-0.0930786
-0.0622559	-0.0308228	-0.0930786
-0.0622559	-0.0317383	-0.0939941
-0.0634766	-0.0323486	-0.0958252
-0.0643921	-0.032959	-0.0973511
-0.0634766	-0.0332642	-0.0967407
-0.0616455	-0.0338745	-0.09552
-0.0598145	-0.0341797	-0.0939941
-0.0579834	-0.0344849	-0.0924683
-0.0564575	-0.03479	-0.0912476
-0.055542	-0.0354004	-0.0909424
-0.0534058	-0.0360107	-0.0894165
-0.0497437	-0.0372314	-0.0869751
-0.0466919	-0.0378418	-0.0845337
-0.0460815	-0.0384521	-0.0845337
-0.0476074	-0.0387573	-0.0863647
-0.0491333	-0.0390625	-0.0881958
-0.0488281	-0.0390625	-0.0878906
-0.0485229	-0.0387573	-0.0872803
-0.0488281	-0.0375366	-0.0863647
-0.0494385	-0.0366211	-0.0860596
-0.0509644	-0.0357056	-0.0866699
-0.0521851	-0.0350952	-0.0872803
-0.0524902	-0.03479	-0.0872803
-0.0521851	-0.0341797	-0.0863647
-0.0515747	-0.0332642	-0.0848389
-0.0500488	-0.0326538	-0.0827026
-0.0488281	-0.0326538	-0.0814819
-0.0491333	-0.032959	-0.0820923
-0.050354	-0.0332642	-0.0836182
-0.0515747	-0.0338745	-0.0854492
-0.0524902	-0.0344849	-0.0869751
-0.0537109	-0.0354004	-0.0891113
-0.055542	-0.0363159	-0.0918579
-0.0567627	-0.0378418	-0.0946045
-0.0564575	-0.0402832	-0.0967407
-0.0561523	-0.0430298	-0.0991821
-0.0558472	-0.0454712	-0.101318
-0.0558472	-0.0469971	-0.102844
-0.057373	-0.0476074	-0.10498
-0.0585938	-0.0473022	-0.105896
-0.0579834	-0.0473022	-0.105286
-0.0549316	-0.0466919	-0.101624
-0.0512695	-0.0454712	-0.0967407
-0.0485229	-0.0436401	-0.0921631
-0.0473022	-0.0418091	-0.0891113
-0.0454712	-0.039978	-0.0854492
-0.0415039	-0.0384521	-0.0799561
-0.0363159	-0.038147	-0.0744629
-0.0317383	-0.0384521	-0.0701904
-0.0289917	-0.0387573	-0.067749
-0.0280762	-0.0393677	-0.0674438
-0.027771	-0.0405884	-0.0683594
-0.0286865	-0.0418091	-0.0704956
-0.0311279	-0.0430298	-0.0741577
-0.0335693	-0.0436401	-0.0772095
-0.0350952	-0.0439453	-0.0790405
-0.0369263	-0.0436401	-0.0805664
-0.0387573	-0.043335	-0.0820923
-0.0408936	-0.043335	-0.0842285
-0.0424194	-0.043335	-0.0857544
-0.0424194	-0.0427246	-0.085144
-0.0405884	-0.0418091	-0.0823975
-0.038147	-0.0408936	-0.0790405
-0.0357056	-0.0408936	-0.0765991
-0.0341797	-0.0408936	-0.0750732
-0.0335693	-0.0408936	-0.0744629
-0.032959	-0.0405884	-0.0735474
-0.032959	-0.0402832	-0.0732422
-0.0335693	-0.0396729	-0.0732422
-0.0344849	-0.0390625	-0.0735474
-0.0354004	-0.0384521	-0.0738525
-0.0366211	-0.0384521	-0.0750732
-0.0384521	-0.038147	-0.0765991
-0.0396729	-0.0375366	-0.0772095
-0.0396729	-0.0375366	-0.0772095
-0.0390625	-0.0375366	-0.0765991
-0.0390625	-0.0372314	-0.0762939
-0.0387573	-0.0369263	-0.0756836
-0.0384521	-0.0372314	-0.0756836
-0.038147	-0.0378418	-0.0759888
-0.0375366	-0.038147	-0.0756836
-0.0366211	-0.038147	-0.0747681
-0.0366211	-0.0375366	-0.0741577
-0.0375366	-0.0369263	-0.0744629
-0.0387573	-0.0363159	-0.0750732
-0.039978	-0.0366211	-0.0765991
-0.0396729	-0.0369263	-0.0765991
-0.0375366	-0.0375366	-0.0750732
-0.0357056	-0.038147	-0.0738525
-0.0357056	-0.0384521	-0.0741577
-0.0363159	-0.0390625	-0.0753784
-0.0360107	-0.0396729	-0.0756836
-0.0341797	-0.039978	-0.0741577
-0.0317383	-0.0396729	-0.0714111
-0.0305176	-0.0393677	-0.0698853
-0.0302124	-0.0390625	-0.0692749
-0.0305176	-0.0378418	-0.0683594
-0.0311279	-0.0363159	-0.0674438
-0.0320435	-0.03479	-0.0668335
-0.0326538	-0.0335693	-0.0662231
-0.0323486	-0.0323486	-0.0646973
-0.0320435	-0.0317383	-0.0637817
-0.0320435	-0.0314331	-0.0634766
-0.0326538	-0.0311279	-0.0637817
-0.0332642	-0.0308228	-0.0640869
-0.0335693	-0.0305176	-0.0640869
-0.0338745	-0.0308228	-0.0646973
-0.0341797	-0.0311279	-0.0653076
-0.0341797	-0.0317383	-0.065918
-0.0344849	-0.0320435	-0.0665283
-0.0350952	-0.0320435	-0.0671387
-0.0357056	-0.0317383	-0.0674438
-0.0363159	-0.0311279	-0.0674438
-0.0366211	-0.0305176	-0.0671387
-0.0366211	-0.0299072	-0.0665283
-0.0357056	-0.0296021	-0.0653076
-0.03479	-0.0289917	-0.0637817
-0.0335693	-0.0280762	-0.0616455
-0.0317383	-0.0274658	-0.0592041
-0.0292969	-0.0268555	-0.0561523
-0.0268555	-0.0265503	-0.0534058
-0.0256348	-0.0265503	-0.0521851
-0.0256348	-0.0268555	-0.0524902
-0.0262451	-0.0268555	-0.0531006
-0.0268555	-0.0265503	-0.0534058
-0.0280762	-0.0262451	-0.0543213
-0.0305176	-0.0256348	-0.0561523
-0.0338745	-0.0244141	-0.0582886
-0.0369263	-0.0231934	-0.0601196
-0.0396729	-0.0228882	-0.062561
-0.0415039	-0.0228882	-0.0643921
-0.0427246	-0.0228882	-0.0656128
-0.0439453	-0.0222778	-0.0662231
-0.045166	-0.0213623	-0.0665283
-0.0454712	-0.020752	-0.0662231
-0.0457764	-0.0204468	-0.0662231
-0.0457764	-0.0204468	-0.0662231
-0.0439453	-0.0201416	-0.0640869
-0.0424194	-0.0198364	-0.0622559
-0.0427246	-0.0192261	-0.0619507
-0.0445557	-0.0186157	-0.0631714
-0.0457764	-0.0180054	-0.0637817
-0.0457764	-0.0177002	-0.0634766
-0.0448608	-0.017395	-0.0622559
-0.043335	-0.0180054	-0.0613403
-0.0418091	-0.0192261	-0.0610352
-0.039978	-0.0210571	-0.0610352
-0.0372314	-0.022583	-0.0598145
-0.03479	-0.0231934	-0.0579834
-0.0332642	-0.022583	-0.0558472
-0.0332642	-0.0216675	-0.0549316
-0.0341797	-0.020752	-0.0549316
-0.0354004	-0.0201416	-0.055542
-0.0357056	-0.0192261	-0.0549316
-0.0363159	-0.0183105	-0.0546265
-0.0378418	-0.0167847	-0.0546265
-0.039978	-0.0149536	-0.0549316
-0.0424194	-0.0128174	-0.0552368
-0.0436401	-0.0109863	-0.0546265
-0.0430298	-0.0100708	-0.0531006
-0.0405884	-0.00976563	-0.050354
-0.0372314	-0.00915527	-0.0463867
-0.0335693	-0.00854492	-0.0421143
-0.0305176	-0.00793457	-0.0384521
-0.0283813	-0.00671387	-0.0350952
-0.0256348	-0.00488281	-0.0305176
-0.0222778	-0.00213623	-0.0244141
-0.0192261	0.0012207	-0.0180054
-0.0167847	0.00488281	-0.0119019
-0.0146484	0.00854492	-0.00610352
-0.0131226	0.012207	-0.000915527
-0.0119019	0.0161743	0.00427246
-0.0109863	0.0198364	0.0088501
-0.00976563	0.0219727	0.012207
-0.00793457	0.0222778	0.0143433
-0.00518799	0.0201416	0.0149536
-0.000915527	0.0164795	0.015564
0.00427246	0.0112915	0.015564
0.0112915	0.00549316	0.0167847
0.0186157	0.000305176	0.0189209
0.0259399	-0.00366211	0.0222778
0.0323486	-0.00701904	0.0253296
0.0384521	-0.00946045	0.0289917
0.0436401	-0.010376	0.0332642
0.0466919	-0.0100708	0.0366211
0.0469971	-0.00823975	0.0387573
0.0442505	-0.00549316	0.0387573
0.0393677	-0.00244141	0.0369263
0.0344849	-0.000610352	0.0338745
0.0302124	-0.000915527	0.0292969
0.0253296	-0.00305176	0.0222778
0.0201416	-0.00701904	0.0131226
0.015564	-0.012207	0.00335693
0.0119019	-0.0177002	-0.00579834
0.00854492	-0.022583	-0.0140381
0.00518799	-0.0271606	-0.0219727
0.00213623	-0.0314331	-0.0292969
0.000305176	-0.0350952	-0.03479
0	-0.0378418	-0.0378418
-0.00213623	-0.0390625	-0.0411987
-0.00610352	-0.038147	-0.0442505
-0.0112915	-0.0357056	-0.0469971
-0.015564	-0.0323486	-0.0479126
-0.0183105	-0.0289917	-0.0473022
-0.0204468	-0.0256348	-0.0460815
-0.0222778	-0.022583	-0.0448608
-0.0247192	-0.0201416	-0.0448608
-0.0280762	-0.0180054	-0.0460815
-0.0305176	-0.0167847	-0.0473022
-0.0323486	-0.0164795	-0.0488281
-0.0338745	-0.0170898	-0.0509644
-0.03479	-0.0183105	-0.0531006
-0.0350952	-0.0201416	-0.0552368
-0.0369263	-0.0216675	-0.0585938
-0.0393677	-0.0231934	-0.062561
-0.0418091	-0.0244141	-0.0662231
-0.0442505	-0.0253296	-0.0695801
-0.0469971	-0.0256348	-0.0726318
-0.0506592	-0.0256348	-0.0762939
-0.0540161	-0.0253296	-0.0793457
-0.0561523	-0.0244141	-0.0805664
-0.0576782	-0.0234985	-0.0811768
-0.0585938	-0.0228882	-0.0814819
-0.057373	-0.022583	-0.0799561
-0.0549316	-0.0222778	-0.0772095
-0.0521851	-0.022583	-0.0747681
-0.050354	-0.022583	-0.072937
-0.0491333	-0.0222778	-0.0714111
-0.0476074	-0.0219727	-0.0695801
-0.0466919	-0.0219727	-0.0686646
-0.0463867	-0.0234985	-0.0698853
-0.0473022	-0.0280762	-0.0753784
-0.0488281	-0.0354004	-0.0842285
-0.0506592	-0.0448608	-0.09552
-0.0527954	-0.0549316	-0.107727
-0.0567627	-0.0631714	-0.119934
-0.06073	-0.0683594	-0.129089
-0.0622559	-0.0686646	-0.13092
-0.0570679	-0.0637817	-0.12085
-0.0424194	-0.0527954	-0.0952148
-0.0183105	-0.03479	-0.0531006
0.0164795	-0.00823975	0.00823975
0.0616455	0.0262451	0.0878906
0.120239	0.065918	0.186157
0.192566	0.109863	0.302429
0.27832	0.156555	0.434875
0.376282	0.204773	0.581055
0.479736	0.249939	0.729675
0.578613	0.287781	0.866394
0.667114	0.315247	0.982361
0.740051	0.330505	1.07056
0.792847	0.331726	1.12457
0.820007	0.317383	1.13739
0.818176	0.286865	1.10504
0.785217	0.24231	1.02753
0.72113	0.188293	0.909424
0.626831	0.13031	0.757141
0.508118	0.0720215	0.580139
0.375977	0.0152588	0.391235
0.242615	-0.0363159	0.206299
0.117188	-0.078125	0.0390625
0.00518799	-0.108032	-0.102844
-0.0888062	-0.125122	-0.213928
-0.161438	-0.13092	-0.292358
-0.211487	-0.127563	-0.33905
-0.238647	-0.118408	-0.357056
-0.242004	-0.105896	-0.3479
-0.225525	-0.0921631	-0.317688
-0.196838	-0.0778198	-0.274658
-0.164795	-0.0643921	-0.229187
-0.134583	-0.0524902	-0.187073
-0.109558	-0.0418091	-0.151367
-0.0888062	-0.0320435	-0.12085
-0.0726318	-0.0222778	-0.0949097
-0.0628662	-0.0125122	-0.0753784
-0.0588989	-0.00457764	-0.0634766
-0.0585938	0.0012207	-0.057373
-0.06073	0.00396729	-0.0567627
-0.0637817	0.00457764	-0.0592041
-0.0680542	0.00396729	-0.0640869
-0.0726318	0.00274658	-0.0698853
-0.0772095	0.000915527	-0.0762939
-0.0802612	-0.000610352	-0.0808716
-0.0817871	-0.00213623	-0.0839233
-0.0823975	-0.00305176	-0.0854492
-0.0811768	-0.00335693	-0.0845337
-0.0790405	-0.00305176	-0.0820923
-0.0765991	-0.00213623	-0.0787354
-0.0744629	-0.000915527	-0.0753784
-0.0717163	0.000305176	-0.0714111
-0.0671387	0.000915527	-0.0662231
-0.0622559	0.0012207	-0.0610352
-0.0585938	0.0012207	-0.057373
-0.0564575	0.000915527	-0.055542
-0.0549316	0.000610352	-0.0543213
-0.0534058	0	-0.0534058
-0.0527954	-0.000610352	-0.0534058
-0.0521851	-0.00152588	-0.0537109
-0.0509644	-0.00244141	-0.0534058
-0.0494385	-0.00335693	-0.0527954
-0.0476074	-0.00396729	-0.0515747
-0.0460815	-0.00427246	-0.050354
-0.0448608	-0.00396729	-0.0488281
-0.043335	-0.00305176	-0.0463867
-0.0411987	-0.00244141	-0.0436401
-0.038147	-0.0012207	-0.0393677
-0.0357056	0.000305176	-0.0354004
-0.03479	0.00213623	-0.0326538
-0.0341797	0.00366211	-0.0305176
-0.0332642	0.00488281	-0.0283813
-0.0320435	0.00518799	-0.0268555
-0.0311279	0.00488281	-0.0262451
-0.0299072	0.00396729	-0.0259399
-0.027771	0.00213623	-0.0256348
-0.0247192	0	-0.0247192
-0.0213623	-0.00244141	-0.0238037
-0.0180054	-0.00488281	-0.0228882
-0.0143433	-0.00701904	-0.0213623
-0.010376	-0.00823975	-0.0186157
-0.00579834	-0.00915527	-0.0149536
-0.000305176	-0.0100708	-0.010376
0.00427246	-0.0109863	-0.00671387
0.00640869	-0.0115967	-0.00518799
0.00762939	-0.012207	-0.00457764
0.00823975	-0.0134277	-0.00518799
0.00976563	-0.0149536	-0.00518799
0.0119019	-0.0170898	-0.00518799
0.0146484	-0.0189209	-0.00427246
0.0167847	-0.0210571	-0.00427246
0.0195313	-0.0228882	-0.00335693
0.0241089	-0.0238037	0.000305176
0.0296021	-0.0241089	0.00549316
0.0357056	-0.0234985	0.012207
0.0411987	-0.022583	0.0186157
0.0460815	-0.020752	0.0253296
0.050354	-0.0189209	0.0314331
0.0534058	-0.0167847	0.0366211
0.0564575	-0.015564	0.0408936
0.0598145	-0.0149536	0.0448608
0.062561	-0.0149536	0.0476074
0.0640869	-0.015564	0.0485229
0.0650024	-0.0161743	0.0488281
0.0656128	-0.017395	0.0482178
0.0680542	-0.0189209	0.0491333
0.072937	-0.020752	0.0521851
0.078125	-0.0222778	0.0558472
0.0827026	-0.0234985	0.0592041
0.0881958	-0.0234985	0.0646973
0.09552	-0.0228882	0.0726318
0.102844	-0.0216675	0.0811768
0.109863	-0.020752	0.0891113
0.116882	-0.0195313	0.0973511
0.122986	-0.0177002	0.105286
0.128479	-0.015564	0.112915
0.134277	-0.0137329	0.120544
0.140381	-0.0125122	0.127869
0.144958	-0.0115967	0.133362
0.147705	-0.010376	0.137329
0.149536	-0.00915527	0.140381
0.150757	-0.00823975	0.142517
0.151978	-0.00701904	0.144958
0.153198	-0.00610352	0.147095
0.153809	-0.00488281	0.148926
0.153198	-0.00305176	0.150146
0.152283	-0.0012207	0.151062
0.150452	0.000610352	0.151062
0.148315	0.00274658	0.151062
0.145569	0.00457764	0.150146
0.142517	0.00671387	0.149231
0.138245	0.00854492	0.14679
0.133667	0.0100708	0.143738
0.129089	0.0115967	0.140686
0.124512	0.0134277	0.137939
0.119934	0.0161743	0.136108
0.114746	0.0198364	0.134583
0.108337	0.0231934	0.131531
0.100708	0.0268555	0.127563
0.0915527	0.0302124	0.121765
0.0836182	0.0332642	0.116882
0.0772095	0.0354004	0.11261
0.071106	0.0369263	0.108032
0.0643921	0.0375366	0.101929
0.0567627	0.0372314	0.0939941
0.0491333	0.0357056	0.0848389
0.0421143	0.0335693	0.0756836
0.0344849	0.0305176	0.0650024
0.0268555	0.0274658	0.0543213
0.0204468	0.0238037	0.0442505
0.0152588	0.0204468	0.0357056
0.00793457	0.0177002	0.0256348
-0.000915527	0.0152588	0.0143433
-0.0088501	0.0131226	0.00427246
-0.0158691	0.0109863	-0.00488281
-0.0210571	0.00854492	-0.0125122
-0.0250244	0.00579834	-0.0192261
-0.0283813	0.00335693	-0.0250244
-0.0317383	0.000915527	-0.0308228
-0.0357056	-0.00152588	-0.0372314
-0.0402832	-0.00366211	-0.0439453
-0.0454712	-0.00549316	-0.0509644
-0.0500488	-0.00671387	-0.0567627
-0.0543213	-0.00793457	-0.0622559
-0.0588989	-0.0088501	-0.067749
-0.0628662	-0.0088501	-0.0717163
-0.065918	-0.00854492	-0.0744629
-0.0674438	-0.00793457	-0.0753784
-0.0686646	-0.00762939	-0.0762939
-0.0686646	-0.00701904	-0.0756836
-0.0680542	-0.00701904	-0.0750732
-0.0668335	-0.00732422	-0.0741577
-0.0646973	-0.00793457	-0.0726318
-0.0631714	-0.00915527	-0.0723267
-0.0619507	-0.0109863	-0.072937
-0.0610352	-0.0128174	-0.0738525
-0.06073	-0.0149536	-0.0756836
-0.0601196	-0.017395	-0.0775146
-0.0601196	-0.0198364	-0.0799561
-0.0610352	-0.0216675	-0.0827026
-0.0622559	-0.0234985	-0.0857544
-0.062561	-0.0253296	-0.0878906
-0.0628662	-0.0262451	-0.0891113
-0.0637817	-0.0265503	-0.090332
-0.0643921	-0.0268555	-0.0912476
-0.0646973	-0.0271606	-0.0918579
-0.0650024	-0.0271606	-0.0921631
-0.0656128	-0.0271606	-0.0927734
-0.0665283	-0.0271606	-0.093689
-0.0674438	-0.0268555	-0.0942993
-0.067749	-0.0271606	-0.0949097
-0.067749	-0.0271606	-0.0949097
-0.0674438	-0.0271606	-0.0946045
-0.0674438	-0.0268555	-0.0942993
-0.0668335	-0.0259399	-0.0927734
-0.065918	-0.0244141	-0.090332
-0.0656128	-0.0228882	-0.088501
-0.0646973	-0.0213623	-0.0860596
-0.0628662	-0.0204468	-0.083313
-0.06073	-0.0195313	-0.0802612
-0.0582886	-0.0186157	-0.0769043
-0.0549316	-0.0177002	-0.0726318
-0.0506592	-0.0167847	-0.0674438
-0.0469971	-0.0161743	-0.0631714
-0.0439453	-0.0161743	-0.0601196
-0.0411987	-0.0164795	-0.0576782
-0.0405884	-0.0167847	-0.057373
-0.0405884	-0.0167847	-0.057373
-0.0390625	-0.017395	-0.0564575
-0.0357056	-0.0180054	-0.0537109
-0.0326538	-0.0183105	-0.0509644
-0.0317383	-0.0186157	-0.050354
-0.0326538	-0.0186157	-0.0512695
-0.0332642	-0.0186157	-0.0518799
-0.0323486	-0.0189209	-0.0512695
-0.0302124	-0.0192261	-0.0494385
-0.0274658	-0.0204468	-0.0479126
-0.0244141	-0.0222778	-0.0466919
-0.0216675	-0.0241089	-0.0457764
-0.0201416	-0.0253296	-0.0454712
-0.0198364	-0.0256348	-0.0454712
-0.0201416	-0.0253296	-0.0454712
-0.020752	-0.0250244	-0.0457764
-0.020752	-0.0253296	-0.0460815
-0.0213623	-0.0256348	-0.0469971
-0.022583	-0.0253296	-0.0479126
-0.0238037	-0.0244141	-0.0482178
-0.0253296	-0.0234985	-0.0488281
-0.027771	-0.022583	-0.050354
-0.0299072	-0.0219727	-0.0518799
-0.0311279	-0.0219727	-0.0531006
-0.0311279	-0.022583	-0.0537109
-0.0311279	-0.0238037	-0.0549316
-0.0308228	-0.0250244	-0.0558472
-0.0296021	-0.0265503	-0.0561523
-0.0274658	-0.0280762	-0.055542
-0.0256348	-0.0292969	-0.0549316
-0.0241089	-0.0305176	-0.0546265
-0.0234985	-0.0314331	-0.0549316
-0.0234985	-0.0317383	-0.0552368
-0.0244141	-0.0317383	-0.0561523
-0.0262451	-0.0311279	-0.057373
-0.027771	-0.0311279	-0.0588989
-0.0289917	-0.0311279	-0.0601196
-0.0311279	-0.0311279	-0.0622559
-0.0338745	-0.0305176	-0.0643921
-0.0366211	-0.0302124	-0.0668335
-0.0384521	-0.0299072	-0.0683594
-0.0390625	-0.0296021	-0.0686646
-0.0393677	-0.0292969	-0.0686646
-0.039978	-0.0292969	-0.0692749
-0.0390625	-0.0286865	-0.067749
-0.0372314	-0.0283813	-0.0656128
-0.0354004	-0.0283813	-0.0637817
-0.0338745	-0.0286865	-0.062561
-0.0335693	-0.0292969	-0.0628662
-0.0341797	-0.0296021	-0.0637817
-0.0357056	-0.0296021	-0.0653076
-0.0378418	-0.0292969	-0.0671387
-0.0405884	-0.0299072	-0.0704956
-0.0430298	-0.0305176	-0.0735474
-0.0454712	-0.0314331	-0.0769043
-0.0479126	-0.0323486	-0.0802612
-0.0509644	-0.0332642	-0.0842285
-0.0527954	-0.0344849	-0.0872803
-0.0531006	-0.0357056	-0.0888062
-0.0527954	-0.0369263	-0.0897217
-0.0527954	-0.038147	-0.0909424
-0.0531006	-0.0393677	-0.0924683
-0.0534058	-0.039978	-0.0933838
-0.0521851	-0.0405884	-0.0927734
-0.0482178	-0.0405884	-0.0888062
-0.0445557	-0.0405884	-0.085144
-0.0427246	-0.0402832	-0.0830078
-0.0427246	-0.0396729	-0.0823975
-0.0436401	-0.0390625	-0.0827026
-0.0439453	-0.0387573	-0.0827026
-0.0448608	-0.0387573	-0.0836182
-0.0463867	-0.0390625	-0.0854492
-0.0476074	-0.0390625	-0.0866699
-0.0485229	-0.0393677	-0.0878906
-0.0500488	-0.0393677	-0.0894165
-0.0531006	-0.0390625	-0.0921631
-0.0558472	-0.0387573	-0.0946045
-0.0576782	-0.038147	-0.0958252
-0.0595093	-0.0369263	-0.0964355
-0.0610352	-0.0354004	-0.0964355
-0.0619507	-0.0338745	-0.0958252
-0.0616455	-0.0326538	-0.0942993
-0.0613403	-0.0323486	-0.093689
-0.0616455	-0.0323486	-0.0939941
-0.062561	-0.0323486	-0.0949097
-0.0634766	-0.0323486	-0.0958252
-0.0637817	-0.0323486	-0.0961304
-0.0631714	-0.0323486	-0.09552
-0.0631714	-0.0323486	-0.09552
-0.0634766	-0.0323486	-0.0958252
-0.0637817	-0.0326538	-0.0964355
-0.0646973	-0.032959	-0.0976563
-0.0662231	-0.0332642	-0.0994873
-0.0671387	-0.0335693	-0.100708
-0.067749	-0.0344849	-0.102234
-0.0680542	-0.0350952	-0.103149
-0.067749	-0.0354004	-0.103149
-0.0662231	-0.0354004	-0.101624
-0.0640869	-0.0350952	-0.0991821
-0.0619507	-0.03479	-0.0967407
-0.0585938	-0.0344849	-0.0930786
-0.0543213	-0.0341797	-0.088501
-0.0509644	-0.0338745	-0.0848389
-0.0482178	-0.0335693	-0.0817871
-0.0460815	-0.032959	-0.0790405
-0.0448608	-0.0320435	-0.0769043
-0.045166	-0.0311279	-0.0762939
-0.0457764	-0.0305176	-0.0762939
-0.0457764	-0.0299072	-0.0756836
-0.0463867	-0.0289917	-0.0753784
-0.0485229	-0.027771	-0.0762939
-0.0512695	-0.0268555	-0.078125
-0.0543213	-0.0256348	-0.0799561
-0.0564575	-0.0244141	-0.0808716
-0.0576782	-0.0231934	-0.0808716
-0.0588989	-0.022583	-0.0814819
-0.06073	-0.0228882	-0.0836182
-0.0622559	-0.0238037	-0.0860596
-0.0631714	-0.0250244	-0.0881958
-0.062561	-0.0265503	-0.0891113
-0.06073	-0.0283813	-0.0891113
-0.0592041	-0.0296021	-0.0888062
-0.0579834	-0.0305176	-0.088501
-0.0567627	-0.0311279	-0.0878906
-0.0543213	-0.0314331	-0.0857544
-0.0512695	-0.0314331	-0.0827026
-0.0485229	-0.0317383	-0.0802612
-0.0469971	-0.0314331	-0.0784302
-0.0460815	-0.0308228	-0.0769043
-0.0448608	-0.0299072	-0.0747681
-0.0436401	-0.0296021	-0.0732422
-0.043335	-0.0296021	-0.072937
-0.0445557	-0.0302124	-0.0747681
-0.0466919	-0.0308228	-0.0775146
-0.0494385	-0.0311279	-0.0805664
-0.0527954	-0.0308228	-0.0836182
-0.055542	-0.0302124	-0.0857544
-0.0567627	-0.0296021	-0.0863647
-0.0588989	-0.0292969	-0.0881958
-0.0616455	-0.0286865	-0.090332
-0.0634766	-0.0274658	-0.0909424
-0.062561	-0.0259399	-0.088501
-0.0595093	-0.0241089	-0.0836182
-0.0558472	-0.0219727	-0.0778198
-0.0518799	-0.0198364	-0.0717163
-0.0479126	-0.0177002	-0.0656128
-0.0445557	-0.0161743	-0.06073
-0.0418091	-0.0140381	-0.0558472
-0.0405884	-0.0109863	-0.0515747
-0.0402832	-0.00671387	-0.0469971
-0.0393677	-0.00213623	-0.0415039
-0.0384521	0.00244141	-0.0360107
-0.0384521	0.00610352	-0.0323486
-0.0390625	0.00976563	-0.0292969
-0.0378418	0.0128174	-0.0250244
-0.0338745	0.0152588	-0.0186157
-0.0271606	0.0161743	-0.0109863
-0.0192261	0.015564	-0.00366211
-0.0100708	0.0125122	0.00244141
0	0.00762939	0.00762939
0.00976563	0.00183105	0.0115967
0.0195313	-0.00366211	0.0158691
0.0286865	-0.00823975	0.0204468
0.0369263	-0.0119019	0.0250244
0.0427246	-0.0152588	0.0274658
0.0460815	-0.017395	0.0286865
0.0476074	-0.0189209	0.0286865
0.0469971	-0.0195313	0.0274658
0.0445557	-0.0189209	0.0256348
0.0405884	-0.0170898	0.0234985
0.0357056	-0.0152588	0.0204468
0.0314331	-0.0140381	0.017395
0.0280762	-0.0143433	0.0137329
0.0241089	-0.0161743	0.00793457
0.0204468	-0.0195313	0.000915527
0.0170898	-0.0234985	-0.00640869
0.0134277	-0.0274658	-0.0140381
0.00946045	-0.0308228	-0.0213623
0.00610352	-0.0338745	-0.027771
0.00335693	-0.0372314	-0.0338745
0.000610352	-0.039978	-0.0393677
-0.00305176	-0.0415039	-0.0445557
-0.00793457	-0.0418091	-0.0497437
-0.0134277	-0.0408936	-0.0543213
-0.0183105	-0.0384521	-0.0567627
-0.0222778	-0.03479	-0.0570679
-0.0256348	-0.0305176	-0.0561523
-0.0286865	-0.0262451	-0.0549316
-0.0317383	-0.0228882	-0.0546265
-0.0354004	-0.0201416	-0.055542
-0.0390625	-0.0183105	-0.057373
-0.0442505	-0.0180054	-0.0622559
-0.0506592	-0.0189209	-0.0695801
-0.0585938	-0.0210571	-0.0796509
-0.0653076	-0.0244141	-0.0897217
-0.0698853	-0.0286865	-0.0985718
-0.072937	-0.0335693	-0.106506
-0.0750732	-0.038147	-0.11322
-0.0759888	-0.0427246	-0.118713
-0.0759888	-0.0469971	-0.122986
-0.0753784	-0.0497437	-0.125122
-0.0738525	-0.0515747	-0.125427
-0.0723267	-0.0521851	-0.124512
-0.0708008	-0.0518799	-0.122681
-0.0701904	-0.0506592	-0.12085
-0.0714111	-0.0488281	-0.120239
-0.0744629	-0.0466919	-0.121155
-0.0772095	-0.0448608	-0.12207
-0.0790405	-0.0430298	-0.12207
-0.0799561	-0.0418091	-0.121765
-0.0808716	-0.0411987	-0.12207
-0.0814819	-0.0411987	-0.122681
-0.0811768	-0.0430298	-0.124207
-0.0793457	-0.0479126	-0.127258
-0.0759888	-0.0564575	-0.132446
