Stethoscope	ECG
0	0.000610352
-0.0238037	-0.000915527
-0.0396729	-0.00305176
-0.0326538	-0.00640869
-0.012207	-0.00946045
0.0100708	-0.0125122
0.0296021	-0.0149536
0.0448608	-0.0158691
0.0640869	-0.0146484
0.0668335	-0.0112915
0.0488281	-0.00701904
0.0241089	-0.00274658
-0.00549316	0.000305176
-0.0360107	0.00244141
-0.0521851	0.00457764
-0.0567627	0.00671387
-0.0558472	0.00854492
-0.0418091	0.00915527
-0.0262451	0.00823975
-0.0164795	0.00671387
0.00823975	0.00579834
0.0183105	0.00488281
0.0271606	0.00274658
0.0448608	0.000610352
0.0463867	-0.0012207
0.0363159	-0.00244141
0.0109863	-0.00427246
-0.00854492	-0.00732422
-0.0180054	-0.0100708
-0.0415039	-0.0115967
-0.0613403	-0.0119019
-0.0524902	-0.0115967
-0.0320435	-0.010376
-0.0088501	-0.00823975
0.017395	-0.00549316
0.0338745	-0.00305176
0.0445557	-0.00183105
0.0482178	0
0.0430298	0.00152588
0.0296021	0.00274658
0	0.00152588
-0.0335693	-0.000610352
-0.0473022	-0.00274658
-0.027771	-0.00457764
0.000915527	-0.00610352
0.0204468	-0.00762939
0.00518799	-0.00854492
-0.00579834	-0.00823975
0.0109863	-0.00732422
0.0244141	-0.00610352
0.0152588	-0.00488281
-0.0106812	-0.00335693
-0.0112915	-0.00183105
-0.00335693	0.000305176
0	0.00183105
-0.00274658	0.00244141
-0.000305176	0.00244141
0.0158691	0.00274658
0.0198364	0.00366211
-0.00396729	0.00488281
-0.0302124	0.00610352
-0.0357056	0.00640869
-0.0192261	0.00457764
0.00640869	0.000305176
0.0119019	-0.00457764
0.0262451	-0.00823975
0.0369263	-0.010376
0.010376	-0.0125122
-0.0180054	-0.0137329
-0.0543213	-0.0140381
-0.0787354	-0.0143433
-0.0619507	-0.0146484
-0.0354004	-0.0149536
0.00701904	-0.0140381
0.0366211	-0.012207
0.0582886	-0.0109863
0.0643921	-0.0112915
0.0463867	-0.0119019
0.0180054	-0.0131226
-0.00671387	-0.0146484
0.000305176	-0.0158691
-0.00457764	-0.0161743
0.00274658	-0.0152588
0.0152588	-0.0134277
-0.0131226	-0.0109863
-0.0183105	-0.0088501
-0.0167847	-0.00732422
-0.00427246	-0.00579834
0.000305176	-0.00335693
-0.00152588	-0.000305176
0.00244141	0.00366211
-0.0131226	0.00793457
-0.0149536	0.012207
-0.00457764	0.0164795
-0.00793457	0.0204468
-0.00610352	0.0234985
-0.00946045	0.0241089
-0.0140381	0.0228882
-0.0119019	0.0204468
-0.010376	0.0180054
-0.00915527	0.015564
-0.00518799	0.0128174
0.0164795	0.00915527
0.0512695	0.00427246
0.0628662	0.000305176
0.0558472	-0.00152588
0.06073	-0.000915527
0.0427246	0.000305176
0.00213623	0.000610352
-0.0460815	0.000305176
-0.0827026	0.0012207
-0.107117	0.00366211
-0.101013	0.00488281
-0.0521851	0.00518799
-0.0164795	0.00518799
0.032959	0.00610352
0.0701904	0.00854492
0.0790405	0.0100708
0.0888062	0.0109863
0.0720215	0.0112915
0.0344849	0.0115967
-0.00640869	0.0128174
-0.0579834	0.0143433
-0.0967407	0.0167847
-0.0808716	0.0204468
-0.0698853	0.0259399
-0.0500488	0.0326538
-0.00488281	0.0387573
0.0482178	0.0442505
0.0765991	0.0500488
0.0933838	0.0570679
0.0906372	0.0640869
0.0643921	0.071106
-0.00793457	0.0772095
-0.0695801	0.0823975
-0.0939941	0.0875854
-0.106506	0.0930786
-0.0827026	0.0997925
-0.0466919	0.106201
0.00549316	0.111389
0.0579834	0.114746
0.0891113	0.116272
0.0967407	0.115967
0.0991821	0.113525
0.0689697	0.109558
0.0253296	0.103455
-0.00640869	0.0964355
-0.0308228	0.0888062
-0.0631714	0.0793457
-0.088501	0.0695801
-0.0924683	0.06073
-0.0793457	0.0515747
-0.0476074	0.0439453
0	0.0378418
0.0411987	0.0332642
0.0656128	0.0283813
0.0738525	0.0238037
0.0701904	0.0195313
0.0262451	0.0164795
-0.0268555	0.0152588
-0.0515747	0.0149536
-0.0561523	0.0146484
-0.0448608	0.0134277
-0.0152588	0.0112915
0.00610352	0.00854492
0.015564	0.00518799
0.0302124	0.000610352
0.0396729	-0.00457764
0.0247192	-0.0100708
0.0115967	-0.0143433
0.0119019	-0.017395
-0.00427246	-0.0195313
-0.0308228	-0.0204468
-0.0421143	-0.0201416
-0.0393677	-0.0183105
-0.0341797	-0.015564
-0.0198364	-0.0137329
0.00610352	-0.0125122
0.0466919	-0.0125122
0.067749	-0.0134277
0.0619507	-0.0146484
0.0317383	-0.0180054
-0.0134277	-0.0228882
-0.0439453	-0.0271606
-0.0363159	-0.0311279
-0.0210571	-0.03479
0.00183105	-0.038147
0.0289917	-0.0427246
0.0341797	-0.0488281
0.0289917	-0.0564575
0.0109863	-0.0668335
-0.00488281	-0.0808716
-0.0195313	-0.09552
-0.0296021	-0.106812
-0.0302124	-0.109863
-0.0210571	-0.101929
0.00152588	-0.0793457
0.032959	-0.0396729
0.0405884	0.0195313
0.0244141	0.0994873
-0.000305176	0.198669
-0.022583	0.315857
-0.045166	0.449829
-0.06073	0.596008
-0.0656128	0.742798
-0.0704956	0.874634
-0.0585938	0.982666
-0.0292969	1.06262
-0.00213623	1.10901
0.0308228	1.11603
0.0631714	1.07971
0.0909424	1.00128
0.112	0.885925
0.105591	0.740662
0.0811768	0.574341
0.0354004	0.397949
-0.0161743	0.222778
-0.0546265	0.06073
-0.0662231	-0.0772095
-0.0866699	-0.185242
-0.209045	-0.262756
-0.375061	-0.311279
-0.377197	-0.334167
-0.213928	-0.335999
0.143433	-0.320435
0.597534	-0.291748
0.857544	-0.256348
0.81665	-0.220337
0.550232	-0.187378
0.179443	-0.158081
-0.228271	-0.133362
-0.567017	-0.11261
-0.759583	-0.0958252
-0.822144	-0.0817871
-0.739746	-0.0704956
-0.559998	-0.0616455
-0.324097	-0.0549316
0.0253296	-0.0500488
0.444031	-0.0479126
0.790405	-0.0466919
0.924988	-0.0466919
0.8078	-0.0476074
0.471191	-0.0485229
0.00396729	-0.0479126
-0.292664	-0.0454712
-0.412903	-0.0405884
-0.583191	-0.0335693
-0.596924	-0.0262451
-0.441284	-0.0204468
-0.21637	-0.0146484
0.0512695	-0.00854492
0.26062	-0.00518799
0.35614	-0.00518799
0.360718	-0.00823975
0.294495	-0.0125122
0.162659	-0.0170898
0.0317383	-0.0210571
-0.0463867	-0.0253296
-0.0817871	-0.0283813
-0.0958252	-0.0283813
-0.0930786	-0.0265503
-0.0808716	-0.0247192
-0.0665283	-0.0231934
-0.0442505	-0.020752
-0.0286865	-0.0177002
-0.0418091	-0.0149536
-0.032959	-0.0128174
0.0567627	-0.0131226
0.10437	-0.015564
0.078125	-0.0180054
0.0149536	-0.0192261
-0.039978	-0.0204468
-0.0744629	-0.0210571
-0.0726318	-0.0210571
-0.0473022	-0.0210571
-0.00915527	-0.0210571
0.0247192	-0.0210571
0.0473022	-0.0198364
0.0616455	-0.0170898
0.0634766	-0.012207
0.0579834	-0.00579834
0.0509644	0.00183105
0.0210571	0.0109863
-0.0299072	0.0192261
-0.0848389	0.0241089
-0.118103	0.0253296
-0.114441	0.0244141
-0.0802612	0.0231934
-0.0143433	0.022583
0.0515747	0.0228882
0.0872803	0.0228882
0.100098	0.0219727
0.0949097	0.0210571
0.0668335	0.0219727
0.0314331	0.0250244
-0.0128174	0.0299072
-0.0570679	0.0363159
-0.0906372	0.043335
-0.0997925	0.0494385
-0.0738525	0.0543213
-0.0445557	0.0582886
-0.0167847	0.0622559
0.0189209	0.0662231
0.0497437	0.0714111
0.0765991	0.0775146
0.0759888	0.0839233
0.0561523	0.0900269
0.03479	0.0942993
0.00579834	0.0976563
-0.0292969	0.101318
-0.0680542	0.10498
-0.0772095	0.107727
-0.0488281	0.109863
-0.00854492	0.111694
0.039978	0.113525
0.0894165	0.116577
0.0720215	0.12085
0.0088501	0.126648
-0.0238037	0.133057
-0.0411987	0.138245
-0.0491333	0.143127
-0.0421143	0.148315
-0.0164795	0.152893
0.015564	0.15625
0.043335	0.158081
0.0552368	0.158997
0.0482178	0.159912
0.0320435	0.158997
0.00274658	0.156555
-0.0238037	0.153503
-0.0527954	0.150146
-0.0717163	0.14801
-0.0540161	0.14679
-0.0204468	0.145874
0.00274658	0.144958
0.0247192	0.144348
0.03479	0.143738
0.0289917	0.142212
0.00823975	0.139771
-0.00793457	0.135498
-0.010376	0.128784
-0.0201416	0.119934
-0.0222778	0.110474
-0.00762939	0.0991821
0.012207	0.0857544
0.0308228	0.0717163
0.0515747	0.0579834
0.062561	0.0463867
0.0402832	0.0366211
0.00823975	0.0280762
-0.0134277	0.0195313
-0.0369263	0.0112915
-0.0494385	0.00518799
-0.0558472	0
-0.0689697	-0.00518799
-0.067749	-0.00946045
-0.0497437	-0.0140381
-0.0231934	-0.0198364
0.00610352	-0.0253296
0.0256348	-0.0299072
0.0442505	-0.0344849
0.0491333	-0.0396729
0.0494385	-0.0436401
0.055542	-0.0466919
0.0497437	-0.0500488
0.0326538	-0.0534058
-0.0128174	-0.055542
-0.127258	-0.0558472
-0.238342	-0.0549316
-0.0701904	-0.0540161
0.393372	-0.0537109
0.570984	-0.0531006
0.340271	-0.0512695
0.0418091	-0.0488281
-0.324402	-0.0463867
-0.632629	-0.0436401
-0.673218	-0.0424194
-0.503235	-0.043335
-0.210876	-0.0460815
0.0875854	-0.0482178
0.319824	-0.0488281
0.505676	-0.0482178
0.583801	-0.0469971
0.535889	-0.0460815
0.394592	-0.0463867
0.172424	-0.0460815
-0.071106	-0.0436401
-0.289001	-0.0396729
-0.442505	-0.0350952
-0.484924	-0.0317383
-0.446167	-0.0289917
-0.328674	-0.0265503
-0.126038	-0.0241089
0.101013	-0.022583
0.30304	-0.0238037
0.397034	-0.0262451
0.360413	-0.0280762
0.232849	-0.0286865
0.0561523	-0.0286865
-0.0946045	-0.0274658
-0.200195	-0.0253296
-0.24292	-0.0234985
-0.198364	-0.0213623
-0.108337	-0.0201416
-0.000305176	-0.0201416
0.078125	-0.020752
0.104065	-0.020752
0.103455	-0.0204468
0.0689697	-0.0201416
0.0326538	-0.0204468
0.00549316	-0.0204468
-0.0244141	-0.0189209
-0.0457764	-0.017395
-0.0296021	-0.0167847
0.00671387	-0.0167847
0.0308228	-0.0161743
0.0384521	-0.0146484
0.0219727	-0.0125122
-0.0106812	-0.0115967
-0.0357056	-0.0119019
-0.0418091	-0.0137329
-0.0363159	-0.0167847
-0.0128174	-0.0189209
0.00946045	-0.0195313
0.0238037	-0.0189209
0.0311279	-0.0177002
0.0292969	-0.0167847
0.0326538	-0.0167847
0.0247192	-0.0167847
-0.00152588	-0.0164795
-0.0341797	-0.0152588
-0.0637817	-0.0146484
-0.0747681	-0.0143433
-0.078125	-0.0143433
-0.0622559	-0.0131226
-0.0210571	-0.0119019
0.0289917	-0.0115967
0.0762939	-0.0119019
0.0997925	-0.012207
0.0964355	-0.012207
0.067749	-0.0125122
0.0152588	-0.0140381
-0.0271606	-0.0158691
-0.0524902	-0.017395
-0.0549316	-0.0180054
-0.0469971	-0.0170898
-0.0424194	-0.0149536
-0.0256348	-0.0140381
-0.0119019	-0.0164795
0.00457764	-0.0201416
0.0302124	-0.0216675
0.0494385	-0.0213623
0.0497437	-0.0210571
0.0491333	-0.0210571
0.0390625	-0.020752
0.0100708	-0.0204468
-0.00854492	-0.020752
-0.0250244	-0.0216675
-0.0466919	-0.0228882
-0.0442505	-0.0234985
-0.0592041	-0.0244141
-0.0674438	-0.0253296
-0.0311279	-0.0259399
0.00762939	-0.0268555
0.0320435	-0.027771
0.0680542	-0.027771
0.0610352	-0.0259399
0.0601196	-0.0228882
0.0692749	-0.0192261
0.0219727	-0.0161743
-0.0177002	-0.015564
-0.0616455	-0.0170898
-0.110168	-0.0192261
-0.0912476	-0.0216675
-0.0579834	-0.0241089
-0.0262451	-0.0274658
0.0463867	-0.0308228
0.0769043	-0.0332642
0.0753784	-0.0344849
0.0848389	-0.0344849
0.0344849	-0.0326538
-0.0100708	-0.0289917
-0.0271606	-0.0247192
-0.0653076	-0.0219727
-0.0546265	-0.0210571
-0.0372314	-0.0216675
-0.0283813	-0.0228882
0.0088501	-0.0250244
0.0143433	-0.027771
0.0128174	-0.0296021
0.0167847	-0.0308228
-0.00396729	-0.0314331
-0.000305176	-0.0335693
0.00518799	-0.0363159
0.0112915	-0.0378418
0.0274658	-0.0378418
0.00823975	-0.0372314
0.0167847	-0.0366211
0.0222778	-0.0354004
0.0152588	-0.032959
0.0216675	-0.0289917
-0.0164795	-0.0262451
-0.0442505	-0.0256348
-0.0311279	-0.0259399
-0.0512695	-0.0259399
-0.038147	-0.0250244
-0.0201416	-0.0238037
-0.012207	-0.0231934
0.0323486	-0.0234985
0.0274658	-0.0247192
0.0222778	-0.0265503
0.0509644	-0.0262451
0.0274658	-0.0238037
0.0296021	-0.0198364
0.0387573	-0.015564
0.00640869	-0.0109863
0.0167847	-0.00579834
-0.00457764	-0.000610352
-0.0213623	0.00396729
-0.00976563	0.00823975
-0.0512695	0.0131226
-0.0570679	0.0189209
-0.0546265	0.0238037
-0.0619507	0.0268555
-0.00640869	0.0286865
0.00518799	0.0289917
0.0192261	0.0296021
0.0564575	0.0302124
0.03479	0.0296021
0.0509644	0.0280762
0.0335693	0.0271606
-0.00762939	0.0280762
-0.000610352	0.0302124
-0.0408936	0.0332642
-0.0375366	0.0363159
-0.0134277	0.0402832
-0.0357056	0.0460815
-0.00274658	0.0534058
-0.00518799	0.0604248
-0.0112915	0.0668335
0.0170898	0.0717163
-0.0268555	0.0750732
-0.00671387	0.0765991
0.0219727	0.0778198
0.0106812	0.0784302
0.0637817	0.0769043
0.0463867	0.0723267
0.0299072	0.0646973
0.0494385	0.0567627
-0.0192261	0.0488281
-0.0323486	0.0415039
-0.0387573	0.0350952
-0.0692749	0.0292969
-0.0131226	0.0228882
-0.00854492	0.0177002
0.00305176	0.0134277
0.0564575	0.00946045
0.0274658	0.00518799
0.038147	0
0.0338745	-0.00518799
-0.0259399	-0.0106812
-0.015564	-0.015564
-0.0384521	-0.0195313
-0.0537109	-0.0213623
-0.0125122	-0.0216675
-0.0219727	-0.0204468
-0.00488281	-0.0170898
0.0201416	-0.0137329
0.00518799	-0.0140381
0.0164795	-0.0180054
0.00244141	-0.0241089
-0.0213623	-0.0305176
-0.0143433	-0.0375366
-0.00946045	-0.0457764
0.00854492	-0.0552368
0.0119019	-0.0646973
-0.0106812	-0.0720215
-0.0262451	-0.0750732
-0.0430298	-0.0741577
-0.0491333	-0.0708008
-0.0384521	-0.0671387
-0.00457764	-0.0650024
0.0469971	-0.0634766
0.0814819	-0.0622559
0.116272	-0.06073
0.128479	-0.0604248
0.0930786	-0.0640869
0.0622559	-0.0732422
0.00213623	-0.0872803
-0.0714111	-0.102539
-0.0991821	-0.116882
-0.124207	-0.1297
-0.105896	-0.138245
-0.0491333	-0.139771
-0.00793457	-0.130005
0.038147	-0.105896
0.0674438	-0.0640869
0.0537109	-0.00152588
0.0375366	0.0814819
0.0109863	0.18219
-0.0198364	0.298767
-0.03479	0.428772
-0.0341797	0.568237
-0.0296021	0.709229
-0.0314331	0.838013
-0.0189209	0.943909
0.00549316	1.02325
0.00823975	1.07208
-0.00366211	1.08368
-0.000610352	1.05469
0.00640869	0.985413
-0.00701904	0.880737
0.0128174	0.74646
0.0793457	0.588379
0.0759888	0.416565
0.00457764	0.243835
-0.0137329	0.0817871
-0.0228882	-0.0610352
-0.0616455	-0.180054
-0.13855	-0.270691
-0.296936	-0.331726
-0.393982	-0.364075
-0.293579	-0.371094
-0.0180054	-0.358887
0.489197	-0.332031
0.923157	-0.293884
0.895081	-0.250244
0.554199	-0.206299
0.191345	-0.166931
-0.157166	-0.133972
-0.460205	-0.108337
-0.674438	-0.0894165
-0.748901	-0.0747681
-0.677185	-0.0637817
-0.531921	-0.057373
-0.357056	-0.0549316
-0.0772095	-0.0552368
0.239258	-0.0570679
0.487671	-0.0592041
0.639954	-0.0622559
0.695496	-0.0650024
0.643311	-0.067749
0.43335	-0.0701904
0.104065	-0.0720215
-0.260925	-0.0732422
-0.527954	-0.072937
-0.614319	-0.0720215
-0.569763	-0.0704956
-0.427551	-0.0683594
-0.189819	-0.0650024
0.117188	-0.0601196
0.344238	-0.0546265
0.391846	-0.0491333
0.376282	-0.0448608
0.335083	-0.0424194
0.197754	-0.0411987
-0.0100708	-0.0411987
-0.173035	-0.0424194
-0.21759	-0.0445557
-0.205688	-0.0457764
-0.176697	-0.0460815
-0.133667	-0.0454712
-0.0830078	-0.0439453
0.0299072	-0.0415039
0.112	-0.0393677
0.105591	-0.0372314
0.0869751	-0.0344849
0.0970459	-0.0317383
0.0897217	-0.0289917
0.0421143	-0.0262451
-0.0457764	-0.0234985
-0.10437	-0.0210571
-0.098877	-0.0195313
-0.0543213	-0.0180054
-0.0131226	-0.0167847
0.00488281	-0.0152588
0.00946045	-0.0131226
0.0131226	-0.0109863
-0.00488281	-0.00976563
0.022583	-0.0088501
0.0631714	-0.00640869
0.055542	-0.00366211
0.0616455	0
0.0482178	0.00366211
0.00854492	0.00671387
-0.0128174	0.00854492
-0.0448608	0.010376
-0.0952148	0.0128174
-0.0982666	0.0158691
-0.0689697	0.0189209
-0.0332642	0.0204468
-0.020752	0.0198364
-0.0146484	0.0186157
-0.0128174	0.0183105
-0.0299072	0.0192261
0.00183105	0.0216675
0.055542	0.0247192
0.0753784	0.0283813
0.111084	0.032959
0.111694	0.0378418
0.0619507	0.0442505
0.0167847	0.0515747
-0.0177002	0.0588989
-0.0491333	0.0653076
-0.0848389	0.0717163
-0.0772095	0.0784302
-0.0494385	0.0845337
-0.0436401	0.0900269
-0.0128174	0.09552
0.0296021	0.102234
0.00701904	0.109253
0.0204468	0.116577
0.0497437	0.122681
0.0323486	0.126343
0.017395	0.127869
0.00305176	0.129089
0.0134277	0.130005
0.00488281	0.130005
-0.0177002	0.129395
-0.0335693	0.128174
-0.0259399	0.127563
0.00518799	0.128174
0.00915527	0.13092
-0.0125122	0.134277
-0.00396729	0.13855
0.0314331	0.142822
0.0183105	0.147095
-0.0338745	0.150757
-0.0170898	0.153198
0.0344849	0.154419
0.0271606	0.153503
-0.0170898	0.150146
-0.00915527	0.145569
0.0216675	0.140076
0.0125122	0.133667
-0.0213623	0.126953
-0.0292969	0.119934
-0.0195313	0.11322
0.00823975	0.106506
0.0137329	0.0994873
-0.0109863	0.0915527
-0.0228882	0.0836182
0.0012207	0.0759888
0.0231934	0.0680542
-0.0183105	0.0592041
-0.0308228	0.0500488
0.0186157	0.0415039
0.0363159	0.0332642
0.0170898	0.0256348
-0.0134277	0.0180054
-0.00793457	0.0109863
0.00640869	0.00457764
0.00457764	-0.00152588
-0.00274658	-0.00732422
-0.0216675	-0.0125122
0.00366211	-0.0177002
0.0299072	-0.0219727
-0.015564	-0.0259399
-0.0769043	-0.0296021
-0.067749	-0.0344849
0.00366211	-0.0408936
0.0314331	-0.0479126
0.0265503	-0.0540161
0.022583	-0.0592041
0.0241089	-0.0631714
0.0253296	-0.0662231
0.00701904	-0.0689697
-0.0820923	-0.071106
-0.143127	-0.0723267
0.152283	-0.0717163
0.578613	-0.0680542
0.508423	-0.0616455
0.127258	-0.0546265
-0.20752	-0.0500488
-0.554199	-0.0479126
-0.734558	-0.0463867
-0.636902	-0.0445557
-0.356445	-0.0442505
-0.0247192	-0.0460815
0.256348	-0.0488281
0.454102	-0.0518799
0.507813	-0.0546265
0.46051	-0.0561523
0.389709	-0.0558472
0.249634	-0.0540161
0.0219727	-0.050354
-0.194092	-0.0457764
-0.310974	-0.0415039
-0.343323	-0.0375366
-0.306396	-0.0323486
-0.198975	-0.0283813
-0.116882	-0.0271606
-0.0296021	-0.0280762
0.10376	-0.0289917
0.245972	-0.0292969
0.245361	-0.0296021
0.127258	-0.0314331
0.057373	-0.0332642
-0.0323486	-0.0338745
-0.0759888	-0.0338745
-0.126343	-0.0350952
-0.0967407	-0.0369263
-0.050354	-0.0387573
0.0125122	-0.0396729
0.038147	-0.0405884
-0.0088501	-0.0418091
-0.00793457	-0.043335
0.0213623	-0.0442505
0.067749	-0.0439453
0.0296021	-0.0418091
-0.00946045	-0.0384521
0.0338745	-0.0344849
0.0375366	-0.0292969
0.0115967	-0.0219727
-0.0418091	-0.0146484
-0.0552368	-0.00946045
-0.0247192	-0.00701904
-0.0320435	-0.00579834
-0.0637817	-0.00518799
-0.09552	-0.00549316
-0.0308228	-0.00671387
0.050354	-0.00854492
0.0598145	-0.0115967
0.0402832	-0.0161743
0.0543213	-0.0204468
0.0952148	-0.0228882
0.0668335	-0.0228882
-0.0140381	-0.0213623
-0.0485229	-0.0195313
-0.0222778	-0.0180054
-0.0189209	-0.0170898
-0.0430298	-0.0158691
-0.0601196	-0.0140381
-0.032959	-0.0125122
0.0384521	-0.012207
0.0665283	-0.0146484
0.0372314	-0.0189209
0.00518799	-0.0234985
0.0408936	-0.027771
0.0582886	-0.0323486
-0.00274658	-0.0369263
-0.039978	-0.0402832
-0.0457764	-0.0427246
-0.0195313	-0.0442505
-0.039978	-0.043335
-0.0598145	-0.0408936
-0.0411987	-0.0375366
-0.00518799	-0.0338745
0.0241089	-0.0299072
0.0125122	-0.0256348
0.0195313	-0.0216675
0.0308228	-0.0186157
0.0228882	-0.0164795
-0.00946045	-0.0161743
-0.0326538	-0.017395
-0.017395	-0.0195313
-0.0012207	-0.0210571
-0.0125122	-0.0219727
-0.0256348	-0.0216675
-0.00762939	-0.0201416
0.0341797	-0.0177002
0.0588989	-0.0140381
0.0527954	-0.0088501
0.0384521	-0.00427246
0.0320435	-0.0012207
0.00274658	0.000915527
-0.0424194	0.000915527
-0.0613403	-0.00274658
-0.0546265	-0.0100708
-0.0387573	-0.0186157
-0.0268555	-0.0271606
-0.00244141	-0.0350952
0.0283813	-0.0418091
0.0375366	-0.0469971
0.03479	-0.0497437
0.0262451	-0.0491333
0.0228882	-0.0454712
0.0253296	-0.0390625
0.00854492	-0.0323486
-0.000915527	-0.0253296
-0.00610352	-0.0189209
-0.0140381	-0.0134277
-0.0283813	-0.00976563
-0.045166	-0.00793457
-0.0387573	-0.00762939
-0.0411987	-0.00762939
-0.0384521	-0.00762939
-0.0350952	-0.00762939
-0.000305176	-0.00762939
0.0280762	-0.00762939
0.0646973	-0.00762939
0.0762939	-0.00671387
0.0820923	-0.00549316
0.0717163	-0.00518799
0.0363159	-0.00640869
-0.0100708	-0.00671387
-0.045166	-0.00518799
-0.055542	-0.00335693
-0.071106	-0.00274658
-0.0778198	-0.00274658
-0.0784302	-0.00183105
-0.0482178	0
-0.0128174	0.00183105
0.0253296	0.00244141
0.0482178	0.00213623
0.0765991	0.000915527
0.0683594	-0.00183105
0.0521851	-0.00427246
0.0195313	-0.00579834
0.00457764	-0.00732422
-0.0372314	-0.00946045
-0.0622559	-0.0115967
-0.0823975	-0.012207
-0.0497437	-0.0112915
-0.00854492	-0.00946045
0.0131226	-0.00732422
0.00335693	-0.00579834
0.0161743	-0.00549316
0.0308228	-0.00579834
0.0112915	-0.00671387
-0.00854492	-0.00762939
0.0198364	-0.00854492
0.0549316	-0.00946045
0.0244141	-0.00976563
0.0177002	-0.00976563
0.0320435	-0.00946045
0.0360107	-0.00854492
-0.0183105	-0.00671387
-0.0140381	-0.00366211
0.00854492	0.000915527
0.00946045	0.00671387
-0.0421143	0.0131226
-0.0259399	0.020752
-0.00793457	0.0271606
-0.0195313	0.0320435
-0.0543213	0.0372314
-0.0311279	0.0445557
-0.00152588	0.0515747
0.0012207	0.0570679
0.00427246	0.0601196
0.0332642	0.0613403
0.0354004	0.0622559
0.0170898	0.062561
-0.00457764	0.0622559
-0.00549316	0.062561
-0.03479	0.0634766
-0.0476074	0.0650024
-0.032959	0.0665283
0.0259399	0.0686646
0.0335693	0.072937
0.0317383	0.0793457
0.0292969	0.0854492
0.0335693	0.0894165
0.0280762	0.0921631
-0.0317383	0.0946045
-0.0445557	0.0967407
-0.0463867	0.0976563
-0.0134277	0.0967407
-0.010376	0.093689
-0.0177002	0.0888062
0.00823975	0.0827026
0.0274658	0.0759888
0.0454712	0.0695801
0.00488281	0.0643921
-0.0439453	0.0595093
-0.0402832	0.055542
-0.00854492	0.0515747
0.0250244	0.0460815
0.0112915	0.0396729
0.017395	0.0335693
0.0479126	0.0280762
0.0604248	0.0234985
0.0387573	0.0192261
-0.0177002	0.0146484
-0.0418091	0.0106812
-0.0302124	0.00762939
-0.0149536	0.00305176
-0.0186157	-0.00305176
-0.0390625	-0.0088501
-0.027771	-0.0140381
0.0198364	-0.0186157
0.0259399	-0.0238037
0.00457764	-0.0296021
-0.0320435	-0.0350952
-0.012207	-0.0390625
0.0354004	-0.0405884
0.0457764	-0.0405884
0.0231934	-0.0405884
-0.00366211	-0.0396729
0.00701904	-0.0378418
0.0170898	-0.0350952
-0.0161743	-0.0326538
-0.0619507	-0.0305176
-0.0866699	-0.0296021
-0.0613403	-0.0302124
-0.0119019	-0.0314331
0.00762939	-0.0326538
0.0219727	-0.0335693
0.0515747	-0.0350952
0.078125	-0.0387573
0.0720215	-0.045166
0.0299072	-0.0543213
-0.0119019	-0.0646973
-0.020752	-0.0762939
-0.0167847	-0.0878906
-0.0149536	-0.0952148
-0.0183105	-0.0927734
-0.00823975	-0.0778198
0.00305176	-0.0488281
0.00549316	-0.00396729
0.0119019	0.0595093
0.0146484	0.142517
-0.00152588	0.24231
-0.00213623	0.357361
0.00518799	0.487061
0.0177002	0.626526
0.017395	0.766296
-0.0222778	0.89386
-0.0323486	1.00128
-0.0488281	1.08246
-0.038147	1.13007
-0.038147	1.13831
-0.0439453	1.10474
0.0152588	1.02997
0.06073	0.916443
0.0897217	0.769958
0.0418091	0.59906
-0.0161743	0.41626
-0.0308228	0.235596
-0.0521851	0.0701904
-0.0564575	-0.071106
-0.154724	-0.183105
-0.308838	-0.263367
-0.29541	-0.312805
-0.0906372	-0.333557
0.271301	-0.330811
0.66925	-0.308838
0.840149	-0.272522
0.647888	-0.227966
0.248413	-0.1828
-0.172424	-0.142822
-0.559998	-0.110474
-0.791626	-0.085144
-0.811157	-0.0665283
-0.660095	-0.0537109
-0.386047	-0.0448608
-0.0546265	-0.0390625
0.285645	-0.0357056
0.600586	-0.0354004
0.781555	-0.0387573
0.753784	-0.0439453
0.502625	-0.0488281
0.156555	-0.0521851
-0.139465	-0.0531006
-0.356445	-0.0531006
-0.516052	-0.0521851
-0.624084	-0.0500488
-0.571899	-0.0476074
-0.351257	-0.0460815
-0.0808716	-0.045166
0.169067	-0.043335
0.374756	-0.039978
0.511169	-0.0363159
0.536804	-0.0338745
0.383301	-0.0323486
0.168762	-0.0314331
-0.0250244	-0.0308228
-0.177612	-0.0305176
-0.255737	-0.0296021
-0.27771	-0.027771
-0.233154	-0.0253296
-0.155945	-0.0228882
-0.109558	-0.0198364
-0.0332642	-0.0164795
0.0585938	-0.0134277
0.115967	-0.010376
0.116882	-0.00762939
0.0576782	-0.00427246
0.0460815	-0.00152588
0.0366211	-0.000305176
-0.0241089	-0.000305176
-0.0875854	-0.000610352
-0.101013	-0.0012207
-0.0292969	-0.00244141
0.0247192	-0.00366211
0.0137329	-0.00396729
0.043335	-0.00366211
0.1297	-0.00274658
0.0888062	-0.000915527
-0.0695801	0.0012207
-0.0881958	0.00274658
-0.0640869	0.00427246
-0.0549316	0.00640869
-0.0222778	0.00915527
0.0375366	0.012207
0.09552	0.0152588
0.136414	0.0183105
0.11322	0.0201416
0.0534058	0.0210571
-0.000610352	0.0216675
-0.0384521	0.0231934
-0.0720215	0.0256348
-0.0799561	0.0280762
-0.0616455	0.0308228
-0.022583	0.0335693
-0.00274658	0.0369263
-0.0112915	0.0405884
-0.038147	0.045166
-0.0445557	0.0506592
-0.0164795	0.0564575
-0.0109863	0.0619507
-0.0161743	0.067749
-0.0146484	0.0744629
0.0125122	0.0814819
0.0421143	0.0881958
0.0491333	0.093689
0.0323486	0.098877
0.0195313	0.104675
0.020752	0.109863
0.00396729	0.115356
-0.0332642	0.120239
-0.0512695	0.123596
-0.0396729	0.126038
0.00366211	0.128784
0.0128174	0.130615
0.00396729	0.132446
0.00701904	0.135193
0.027771	0.13916
0.0378418	0.144043
0.0265503	0.149536
0.0250244	0.15686
0.0372314	0.164185
0.0183105	0.170898
-0.0170898	0.176086
-0.0369263	0.181274
-0.027771	0.185242
-0.0396729	0.184937
-0.0778198	0.180969
-0.0549316	0.175781
0.0189209	0.170593
0.0674438	0.165405
0.055542	0.160828
0.0570679	0.158386
0.0680542	0.15686
0.0540161	0.155945
-0.022583	0.154724
-0.0616455	0.153503
-0.0454712	0.151367
-0.0213623	0.148315
-0.0363159	0.144653
-0.0576782	0.139465
-0.0152588	0.132141
0.0125122	0.123291
0.00793457	0.113525
-0.0143433	0.103455
0.00274658	0.0930786
0.0256348	0.0820923
0.0259399	0.0720215
-0.00793457	0.0637817
0	0.0564575
0.0213623	0.0485229
0.0274658	0.039978
-0.0146484	0.0314331
-0.0299072	0.0231934
-0.0180054	0.0146484
0.0119019	0.00640869
0.00427246	-0.000610352
-0.0210571	-0.00640869
-0.00701904	-0.0109863
0.0231934	-0.0149536
0.0244141	-0.0195313
-0.0244141	-0.0256348
-0.0234985	-0.0323486
0.00366211	-0.0372314
0.0204468	-0.0405884
-0.0314331	-0.0427246
-0.0561523	-0.0469971
-0.0372314	-0.0534058
0.0201416	-0.06073
0.0286865	-0.0662231
0.0012207	-0.0692749
-0.00762939	-0.0698853
0.00274658	-0.0698853
-0.0253296	-0.0692749
-0.0976563	-0.0674438
0.0500488	-0.0634766
0.45166	-0.0585938
0.591125	-0.0543213
0.308228	-0.0506592
-0.0708008	-0.0469971
-0.482788	-0.0439453
-0.728149	-0.0418091
-0.682983	-0.0421143
-0.462036	-0.0439453
-0.136414	-0.0463867
0.194397	-0.0488281
0.423279	-0.050354
0.505371	-0.050354
0.454102	-0.0500488
0.377502	-0.050354
0.292969	-0.0497437
0.149231	-0.0473022
-0.0628662	-0.043335
-0.270081	-0.0390625
-0.391541	-0.0350952
-0.41626	-0.0323486
-0.383606	-0.0317383
-0.258789	-0.032959
-0.0762939	-0.0350952
0.106506	-0.0372314
0.250854	-0.0390625
0.291138	-0.0402832
0.291443	-0.0402832
0.231323	-0.0396729
0.112305	-0.038147
-0.0271606	-0.0360107
-0.144348	-0.0332642
-0.1828	-0.0305176
-0.180969	-0.027771
-0.164795	-0.0256348
-0.0946045	-0.0250244
-0.0112915	-0.0262451
0.0628662	-0.0283813
0.0918579	-0.0311279
0.0949097	-0.032959
0.126038	-0.0341797
0.127258	-0.0341797
0.0778198	-0.0326538
0.0115967	-0.0299072
-0.0201416	-0.0262451
-0.020752	-0.0213623
-0.0393677	-0.0164795
-0.0881958	-0.0119019
-0.100708	-0.00793457
-0.0576782	-0.00610352
-0.00823975	-0.00579834
0.000305176	-0.00640869
-0.0354004	-0.00793457
-0.012207	-0.00976563
0.0439453	-0.0125122
0.0622559	-0.0158691
0.0292969	-0.0201416
-0.0143433	-0.0244141
0.0177002	-0.0280762
0.0509644	-0.0305176
0.0332642	-0.0317383
-0.0289917	-0.0320435
-0.0592041	-0.0311279
-0.0158691	-0.0292969
-0.00274658	-0.0265503
-0.0247192	-0.0231934
-0.0604248	-0.0192261
-0.0384521	-0.015564
0.0308228	-0.0125122
0.0457764	-0.0109863
0.0387573	-0.0112915
0.0183105	-0.0131226
0.0344849	-0.0143433
0.0427246	-0.0146484
0.00396729	-0.0140381
-0.0424194	-0.0140381
-0.0827026	-0.0164795
-0.0604248	-0.0204468
-0.0323486	-0.0244141
-0.0363159	-0.0268555
-0.0128174	-0.027771
0.0115967	-0.0280762
0.0558472	-0.0283813
0.0930786	-0.0283813
0.0778198	-0.027771
0.0662231	-0.0259399
0.0289917	-0.0228882
0.0100708	-0.0192261
-0.00823975	-0.0146484
-0.0369263	-0.0088501
-0.0421143	-0.00305176
-0.0473022	0.0012207
-0.0131226	0.00274658
0.017395	0.000915527
-0.0167847	-0.00335693
-0.065918	-0.00823975
-0.0497437	-0.0143433
-0.0112915	-0.0204468
0.00335693	-0.0253296
-0.00762939	-0.0296021
-0.0445557	-0.0326538
-0.032959	-0.03479
-0.00732422	-0.0350952
0.0158691	-0.0332642
0.03479	-0.0292969
0.0527954	-0.0244141
0.0942993	-0.0195313
0.0906372	-0.0161743
0.0460815	-0.0140381
0.00396729	-0.0119019
-0.0256348	-0.0100708
-0.0134277	-0.00823975
-0.0106812	-0.00701904
-0.0231934	-0.0088501
-0.0238037	-0.0134277
-0.0265503	-0.0180054
-0.0112915	-0.0213623
-0.0149536	-0.0238037
-0.0317383	-0.0262451
-0.03479	-0.0289917
-0.0259399	-0.0323486
0.0112915	-0.0354004
0.0247192	-0.0366211
0.0247192	-0.0354004
0.015564	-0.0311279
0.00946045	-0.0244141
0.0137329	-0.017395
-0.00579834	-0.0119019
-0.0289917	-0.00671387
-0.0448608	-0.00305176
-0.0274658	-0.00274658
0.00854492	-0.00518799
0.0424194	-0.0088501
0.0442505	-0.0128174
0.0222778	-0.0170898
0.0167847	-0.0219727
0.0088501	-0.0265503
-0.00183105	-0.0302124
-0.0149536	-0.032959
-0.00793457	-0.0335693
-0.00854492	-0.0317383
-0.0299072	-0.0286865
-0.0363159	-0.0262451
-0.0366211	-0.0244141
-0.0421143	-0.0241089
-0.0247192	-0.0247192
0.00823975	-0.0253296
0.0366211	-0.0253296
0.0570679	-0.0241089
0.0488281	-0.022583
0.0415039	-0.0210571
0.0308228	-0.0195313
0.0283813	-0.0186157
0.0167847	-0.0177002
-0.00488281	-0.0164795
-0.0271606	-0.015564
-0.0436401	-0.0158691
-0.0463867	-0.0167847
-0.0482178	-0.0183105
-0.0402832	-0.0195313
-0.0115967	-0.0201416
-0.0131226	-0.0198364
-0.000915527	-0.0195313
0.0424194	-0.0195313
0.0701904	-0.0186157
0.0497437	-0.0167847
-0.00701904	-0.0137329
-0.010376	-0.00946045
-0.00152588	-0.00610352
-0.0323486	-0.00335693
-0.0210571	-0.000610352
-0.00854492	0.00335693
-0.0234985	0.0088501
-0.00946045	0.0152588
-0.00976563	0.0222778
0.00244141	0.0296021
0.0161743	0.0378418
-0.00976563	0.0457764
0.00457764	0.0527954
0.0210571	0.0595093
-0.00488281	0.0653076
-0.0012207	0.0698853
0.0195313	0.0714111
0.0201416	0.0708008
0.00823975	0.0698853
0.0088501	0.0698853
0.0125122	0.0704956
0.00518799	0.0704956
-0.0280762	0.0692749
-0.0396729	0.067749
-0.0131226	0.0665283
-0.012207	0.0665283
-0.0256348	0.0674438
-0.00427246	0.0692749
0.0183105	0.0701904
0.0106812	0.0683594
0.0146484	0.0640869
0.0344849	0.0582886
0.0479126	0.050354
0.0360107	0.0424194
-0.017395	0.0357056
-0.0317383	0.0296021
-0.0170898	0.0228882
-0.0119019	0.015564
-0.00579834	0.00823975
0.0241089	0.0012207
0.0482178	-0.00335693
0.0616455	-0.00579834
0.0366211	-0.00701904
-0.0216675	-0.00793457
-0.0567627	-0.00946045
-0.0769043	-0.0112915
-0.100098	-0.0131226
-0.093689	-0.0158691
-0.0564575	-0.0192261
-0.0158691	-0.022583
0.0238037	-0.0265503
0.0332642	-0.0326538
0.0360107	-0.0402832
0.0650024	-0.0479126
0.071106	-0.0540161
0.0415039	-0.057373
0.0183105	-0.0588989
0.0177002	-0.0601196
0.0317383	-0.0622559
0.0244141	-0.0650024
-0.00427246	-0.0668335
-0.038147	-0.0674438
-0.0552368	-0.0674438
-0.0552368	-0.0668335
-0.0521851	-0.065918
-0.0463867	-0.0643921
-0.0250244	-0.0631714
0.0271606	-0.0628662
0.0918579	-0.0637817
0.111694	-0.0662231
0.0695801	-0.0726318
0.0274658	-0.0836182
-0.00488281	-0.0967407
-0.0500488	-0.109863
-0.0830078	-0.120544
-0.0906372	-0.125122
-0.067749	-0.120239
-0.0436401	-0.102234
0.000305176	-0.0671387
0.0350952	-0.0119019
0.0466919	0.0640869
0.0646973	0.158997
0.0579834	0.270996
0.0469971	0.399475
0.0137329	0.540466
-0.00732422	0.68512
-0.0112915	0.820313
-0.0485229	0.935364
-0.108948	1.02539
-0.225525	1.08459
-0.000305176	1.10687
0.286255	1.08765
0.110168	1.0257
0.0466919	0.923157
0.00946045	0.784302
-0.0811768	0.618286
-0.0994873	0.436096
-0.0411987	0.250549
0.012207	0.0747681
0.00305176	-0.0799561
-0.0634766	-0.206909
-0.238342	-0.302734
-0.344238	-0.365906
-0.247803	-0.397644
-0.0152588	-0.401306
0.37323	-0.382385
0.72052	-0.346375
0.753174	-0.299377
0.553284	-0.246582
0.297546	-0.195007
0.0140381	-0.150452
-0.325623	-0.115356
-0.617371	-0.0888062
-0.8078	-0.0701904
-0.849915	-0.0592041
-0.697327	-0.0552368
-0.44342	-0.0564575
-0.098877	-0.0613403
0.32196	-0.067749
0.710754	-0.0744629
0.972595	-0.0799561
0.9729	-0.0836182
0.67627	-0.0845337
0.223083	-0.0820923
-0.244751	-0.0769043
-0.600891	-0.071106
-0.726318	-0.0643921
-0.653381	-0.0570679
-0.470886	-0.0500488
-0.222168	-0.0442505
0.010376	-0.0408936
0.183105	-0.038147
0.336609	-0.0363159
0.401306	-0.0366211
0.363159	-0.0390625
0.267639	-0.0430298
0.102234	-0.0473022
-0.0219727	-0.0509644
-0.0878906	-0.0540161
-0.133057	-0.0564575
-0.124512	-0.0585938
-0.105286	-0.0598145
-0.0726318	-0.0588989
-0.0509644	-0.0561523
-0.0500488	-0.0527954
-0.0228882	-0.0500488
-0.0180054	-0.0476074
-0.022583	-0.045166
0.0268555	-0.0436401
0.0360107	-0.0436401
0.0128174	-0.0445557
-0.00305176	-0.0457764
-0.0250244	-0.0469971
0.00488281	-0.0473022
0.0332642	-0.045166
0.0405884	-0.0408936
0.0708008	-0.0344849
0.055542	-0.0265503
0.0326538	-0.0192261
0.0228882	-0.0134277
-0.0210571	-0.00915527
-0.0463867	-0.00579834
-0.0515747	-0.00274658
-0.0469971	-0.000915527
-0.0164795	-0.00213623
-0.00213623	-0.00518799
-0.0012207	-0.00915527
-0.0012207	-0.0131226
-0.015564	-0.0152588
-0.00976563	-0.0146484
0.00915527	-0.0125122
-0.00396729	-0.00946045
-0.00915527	-0.00549316
-0.00183105	-0.000915527
-0.0119019	0.00305176
-0.0140381	0.00610352
0.0012207	0.00915527
0.0088501	0.0128174
0.0140381	0.0170898
0.010376	0.0213623
0.0012207	0.0250244
0.00823975	0.0283813
0.0128174	0.0338745
0.00518799	0.0411987
0.0112915	0.0494385
0.0088501	0.057373
-0.00762939	0.0643921
-0.000305176	0.0714111
0.00762939	0.0775146
0.00427246	0.0827026
0.00274658	0.0875854
-0.010376	0.0921631
-0.00152588	0.0973511
0.0140381	0.102234
0.00305176	0.107727
0.00732422	0.114746
0.00488281	0.122375
-0.010376	0.130005
0.00854492	0.137939
0.0143433	0.144043
0.00488281	0.148621
0.0125122	0.151672
-0.000610352	0.151978
-0.0204468	0.150146
-0.0192261	0.147705
-0.0265503	0.145569
-0.0265503	0.143433
-0.0231934	0.140686
-0.0320435	0.138245
-0.0308228	0.137024
-0.0335693	0.137329
-0.0354004	0.140076
-0.00701904	0.144043
0.0402832	0.14801
0.0756836	0.149841
0.0933838	0.149536
0.0827026	0.147095
0.0430298	0.143433
0.00671387	0.139465
-0.0384521	0.135193
-0.0762939	0.129089
-0.0708008	0.120239
-0.0558472	0.108643
-0.0384521	0.0967407
-0.0137329	0.0860596
0.000915527	0.0759888
0.0265503	0.0653076
0.0582886	0.0540161
0.0631714	0.0430298
0.065918	0.0326538
0.0509644	0.0219727
0.0088501	0.0125122
-0.0213623	0.00488281
-0.0518799	-0.000915527
-0.0683594	-0.00488281
-0.0585938	-0.00793457
-0.0448608	-0.00976563
-0.00762939	-0.0112915
0.0317383	-0.0128174
0.0421143	-0.0164795
0.0415039	-0.0222778
0.0314331	-0.0283813
0.00305176	-0.0354004
-0.0231934	-0.043335
-0.0323486	-0.0506592
-0.03479	-0.0570679
-0.0198364	-0.0631714
-0.0170898	-0.0683594
-0.0286865	-0.0723267
-0.0201416	-0.0744629
-0.0289917	-0.0747681
-0.0982666	-0.072937
-0.162048	-0.0692749
0.00762939	-0.0656128
0.461121	-0.0628662
0.641174	-0.0628662
0.380859	-0.0656128
0.0466919	-0.0695801
-0.352783	-0.0726318
-0.674744	-0.0753784
-0.699463	-0.0775146
-0.51178	-0.0790405
-0.20752	-0.0802612
0.093689	-0.0814819
0.307922	-0.0820923
0.473938	-0.0811768
0.530701	-0.0793457
0.455627	-0.0769043
0.338135	-0.0747681
0.15625	-0.0723267
-0.0466919	-0.0686646
-0.228271	-0.0650024
-0.383911	-0.0616455
-0.414124	-0.0582886
-0.324097	-0.0546265
-0.196533	-0.0509644
-0.0473022	-0.0488281
0.0698853	-0.0479126
0.139771	-0.0473022
0.186157	-0.0469971
0.184937	-0.0466919
0.173035	-0.0476074
0.135803	-0.0500488
0.0537109	-0.0524902
-0.0152588	-0.0540161
-0.09552	-0.0546265
-0.156555	-0.0546265
-0.162964	-0.0537109
-0.150452	-0.0531006
-0.0866699	-0.0524902
-0.0012207	-0.0518799
0.0653076	-0.0509644
0.13092	-0.0491333
0.14679	-0.0460815
0.129089	-0.0427246
0.0912476	-0.0390625
0.0149536	-0.0360107
-0.0366211	-0.0335693
-0.0698853	-0.0317383
-0.111694	-0.0299072
-0.117188	-0.0286865
-0.100403	-0.0283813
-0.0540161	-0.0289917
0.00579834	-0.0302124
0.03479	-0.0314331
0.0619507	-0.0326538
0.0714111	-0.0341797
0.0534058	-0.03479
0.0411987	-0.0338745
0.0195313	-0.0323486
0.000610352	-0.0314331
-0.00610352	-0.0299072
-0.0164795	-0.0286865
-0.0100708	-0.0283813
-0.0012207	-0.0296021
-0.0109863	-0.0317383
-0.0177002	-0.0344849
-0.0213623	-0.0372314
-0.00701904	-0.0396729
0.00366211	-0.0408936
-0.0012207	-0.0408936
0.0088501	-0.039978
0.0100708	-0.0378418
0.00213623	-0.0357056
-0.0192261	-0.0326538
-0.0222778	-0.0292969
0.00152588	-0.0244141
0.0106812	-0.0189209
0.0088501	-0.0146484
0.0250244	-0.0140381
0.020752	-0.0177002
0.00396729	-0.0231934
-0.0183105	-0.0286865
-0.0396729	-0.032959
-0.0405884	-0.0357056
-0.0280762	-0.0378418
-0.00762939	-0.0402832
0.0393677	-0.0418091
0.0543213	-0.0411987
0.0479126	-0.0384521
0.0265503	-0.03479
-0.000305176	-0.0302124
-0.0201416	-0.0265503
-0.0302124	-0.0234985
-0.0363159	-0.020752
-0.0256348	-0.0201416
-0.0100708	-0.0219727
-0.00732422	-0.0259399
0.00671387	-0.0296021
0.0161743	-0.0332642
0.0256348	-0.0378418
0.0158691	-0.0427246
0.0170898	-0.0463867
0.0219727	-0.0482178
0.0143433	-0.0482178
-0.017395	-0.0476074
-0.0378418	-0.0473022
-0.0552368	-0.0454712
-0.0524902	-0.0421143
-0.045166	-0.0384521
-0.0170898	-0.03479
0.00732422	-0.0317383
0.0250244	-0.0311279
0.0436401	-0.032959
0.0534058	-0.0357056
0.0534058	-0.0384521
0.0363159	-0.039978
0.0131226	-0.0408936
-0.000610352	-0.0415039
-0.00671387	-0.0418091
-0.0198364	-0.0415039
-0.0189209	-0.0405884
-0.00518799	-0.0393677
0.00396729	-0.038147
0.000610352	-0.0378418
-0.010376	-0.0387573
-0.00610352	-0.0393677
-0.00823975	-0.0390625
-0.00518799	-0.0366211
-0.0143433	-0.0323486
-0.0146484	-0.0283813
0.00244141	-0.0274658
0.0186157	-0.027771
0.0115967	-0.027771
0	-0.0265503
-0.0088501	-0.0259399
-0.0238037	-0.0268555
-0.0259399	-0.0299072
-0.0350952	-0.0341797
-0.0216675	-0.0396729
0.00946045	-0.045166
0.0271606	-0.0488281
0.0338745	-0.0497437
0.0427246	-0.0479126
0.0485229	-0.0448608
0.0213623	-0.0415039
-0.0253296	-0.0378418
-0.0299072	-0.0335693
-0.0216675	-0.0283813
-0.0228882	-0.0231934
-0.0256348	-0.0183105
-0.00671387	-0.0134277
0.0241089	-0.00854492
0.0354004	-0.00366211
0.0262451	0.0012207
-0.00610352	0.00549316
-0.0448608	0.00946045
-0.0662231	0.0137329
-0.0543213	0.0186157
-0.0189209	0.0238037
0.032959	0.027771
0.0692749	0.0314331
0.0894165	0.0350952
0.0894165	0.0375366
0.0622559	0.0402832
0.00671387	0.0439453
-0.0482178	0.0482178
-0.0747681	0.0518799
-0.0653076	0.055542
-0.0531006	0.0579834
-0.0561523	0.0585938
-0.0534058	0.0579834
-0.0335693	0.057373
-0.0231934	0.0570679
0.00244141	0.0552368
0.045166	0.0518799
0.0888062	0.0463867
0.11322	0.0405884
0.111694	0.0350952
0.0726318	0.0299072
0.0106812	0.0256348
-0.0552368	0.0222778
-0.0930786	0.0201416
-0.106201	0.0183105
-0.0927734	0.0164795
-0.0747681	0.0134277
-0.0372314	0.00946045
0.010376	0.00488281
0.0637817	0
0.0918579	-0.00518799
0.0830078	-0.010376
0.0616455	-0.0146484
0.0491333	-0.0189209
0.0494385	-0.0231934
0.0158691	-0.0256348
-0.0311279	-0.0259399
-0.0463867	-0.0250244
-0.0689697	-0.0238037
-0.0820923	-0.0253296
-0.0762939	-0.0289917
-0.0723267	-0.0332642
-0.0549316	-0.0375366
-0.0149536	-0.0424194
0.00213623	-0.0500488
0.0146484	-0.0592041
0.0338745	-0.0680542
0.0518799	-0.0753784
0.0616455	-0.0817871
0.0469971	-0.0875854
0.0167847	-0.0912476
-0.0198364	-0.0921631
-0.0128174	-0.0906372
0.0167847	-0.0875854
0.0180054	-0.083313
0.020752	-0.0787354
0.0445557	-0.0756836
0.0454712	-0.0738525
0.0280762	-0.0717163
0.0131226	-0.0701904
-0.0164795	-0.071106
-0.0460815	-0.0753784
-0.0628662	-0.0839233
-0.0448608	-0.0958252
-0.0115967	-0.110168
-0.0012207	-0.124512
-0.00457764	-0.136108
-0.00427246	-0.140991
-0.00305176	-0.135803
-0.0125122	-0.115662
-0.0152588	-0.0778198
-0.00976563	-0.0201416
0.000305176	0.0558472
0.0262451	0.149231
0.0469971	0.259094
0.0622559	0.385742
0.0616455	0.526428
0.0311279	0.671997
-0.020752	0.808411
-0.0613403	0.922546
-0.0717163	1.00922
-0.065918	1.06598
-0.0537109	1.08673
-0.0378418	1.06628
-0.00976563	1.00464
0.0299072	0.904846
0.0640869	0.770874
0.0796509	0.610046
0.0717163	0.43335
0.0311279	0.254211
-0.0177002	0.0845337
-0.06073	-0.0656128
-0.0784302	-0.190125
-0.0439453	-0.28595
-0.113525	-0.351257
-0.29541	-0.386047
-0.333862	-0.394592
-0.21759	-0.382385
0.0708008	-0.357361
0.456238	-0.325012
0.713806	-0.288391
0.717773	-0.249939
0.542603	-0.213928
0.252686	-0.183716
-0.050354	-0.160828
-0.298767	-0.143433
-0.470581	-0.1297
-0.576782	-0.118103
-0.595703	-0.108337
-0.554199	-0.100708
-0.510559	-0.0946045
-0.419006	-0.0894165
-0.256042	-0.0854492
0.0521851	-0.0839233
0.431824	-0.083313
0.764771	-0.0827026
0.958862	-0.0817871
0.932312	-0.0793457
0.695801	-0.0750732
0.297852	-0.0704956
-0.16571	-0.065918
-0.561829	-0.0619507
-0.812988	-0.0592041
-0.899963	-0.057373
-0.780945	-0.0558472
-0.481262	-0.0549316
-0.0982666	-0.0552368
0.286255	-0.0564575
0.571594	-0.0576782
0.688477	-0.0588989
0.638123	-0.0613403
0.451355	-0.0650024
0.172729	-0.067749
-0.105286	-0.067749
-0.30365	-0.0653076
-0.412598	-0.062561
-0.425415	-0.0610352
-0.345764	-0.06073
-0.19928	-0.06073
-0.0375366	-0.0601196
0.0958252	-0.0592041
0.185852	-0.0576782
0.22644	-0.0564575
0.221863	-0.0564575
0.174561	-0.057373
0.110168	-0.057373
0.0366211	-0.0561523
-0.0354004	-0.0537109
-0.09552	-0.050354
-0.105896	-0.0466919
-0.0805664	-0.0421143
-0.0436401	-0.0350952
-0.015564	-0.0271606
0.00579834	-0.0216675
0.0195313	-0.0198364
0.0112915	-0.0195313
-0.00366211	-0.0189209
0.0012207	-0.017395
0.0137329	-0.015564
0.0119019	-0.0143433
-0.00732422	-0.0149536
-0.0473022	-0.0161743
-0.0772095	-0.015564
-0.0726318	-0.0131226
-0.043335	-0.00946045
-0.0112915	-0.00549316
0.00335693	-0.00244141
0.0112915	0.000305176
0.0158691	0.00335693
0.020752	0.00518799
0.0253296	0.00549316
0.0360107	0.00549316
0.045166	0.00701904
0.0415039	0.00976563
0.0259399	0.0131226
0.0250244	0.0170898
0.0259399	0.0210571
0.0222778	0.0265503
-0.00213623	0.0338745
-0.0289917	0.0418091
-0.043335	0.0494385
-0.0448608	0.0564575
-0.0427246	0.0634766
-0.0167847	0.0708008
0.0292969	0.0787354
0.0430298	0.0872803
0.0180054	0.09552
0.0128174	0.103149
0.0262451	0.109863
0.0210571	0.114136
0.00183105	0.115356
-0.0234985	0.115662
-0.0549316	0.115967
-0.043335	0.116272
-0.0131226	0.115662
-0.000915527	0.114136
0.00640869	0.111084
0.0283813	0.108032
0.050354	0.107422
0.0506592	0.109253
0.0228882	0.113525
0.0106812	0.119019
0.00854492	0.122986
-0.0167847	0.125122
-0.043335	0.126038
-0.0775146	0.126953
-0.0778198	0.126953
-0.0366211	0.125122
0.00518799	0.122375
0.0253296	0.119019
0.0274658	0.115356
0.0302124	0.110474
0.0506592	0.104675
0.0631714	0.0982666
0.0396729	0.0915527
0	0.0842285
-0.0296021	0.0762939
-0.0448608	0.0668335
-0.0476074	0.055542
-0.0698853	0.043335
-0.0762939	0.0320435
-0.0650024	0.0219727
-0.0192261	0.012207
0.0424194	0.00305176
0.0634766	-0.00427246
0.0567627	-0.00976563
0.0439453	-0.0131226
0.0524902	-0.0146484
0.0579834	-0.0149536
0.0289917	-0.0158691
-0.010376	-0.0183105
-0.0469971	-0.0216675
-0.0576782	-0.0256348
-0.050354	-0.0305176
-0.0421143	-0.0366211
-0.0320435	-0.043335
-0.0198364	-0.050354
0.0247192	-0.0576782
0.0488281	-0.0643921
-0.0146484	-0.0692749
-0.134888	-0.0714111
-0.0799561	-0.071106
0.380249	-0.0698853
0.707397	-0.0689697
0.484924	-0.0674438
0.0717163	-0.0656128
-0.370178	-0.0631714
-0.73761	-0.0613403
-0.840454	-0.0601196
-0.691223	-0.0604248
-0.391235	-0.0613403
-0.0375366	-0.0628662
0.328369	-0.0631714
0.625	-0.0616455
0.74646	-0.0592041
0.686035	-0.0564575
0.486755	-0.0543213
0.22522	-0.0531006
-0.0656128	-0.0534058
-0.339355	-0.0540161
-0.513	-0.0543213
-0.558777	-0.055542
-0.461121	-0.0576782
-0.256958	-0.0598145
-0.0390625	-0.062561
0.136108	-0.0646973
0.25238	-0.0656128
0.331726	-0.0643921
0.340576	-0.0616455
0.245056	-0.0582886
0.0918579	-0.0546265
-0.055542	-0.0509644
-0.143127	-0.0463867
-0.172729	-0.0421143
-0.19104	-0.0378418
-0.188904	-0.0332642
-0.154419	-0.0286865
-0.0698853	-0.0262451
0.0280762	-0.0262451
0.0985718	-0.0271606
0.167236	-0.0283813
0.204773	-0.0305176
0.18219	-0.0341797
0.101929	-0.0387573
-0.0112915	-0.0448608
-0.111389	-0.0509644
-0.175171	-0.0567627
-0.183716	-0.0610352
-0.155029	-0.062561
-0.0933838	-0.0619507
0.00457764	-0.0595093
0.0985718	-0.0552368
0.166626	-0.0494385
0.186462	-0.0427246
0.157471	-0.0354004
0.090332	-0.0286865
-0.00823975	-0.0234985
-0.090332	-0.0204468
-0.153809	-0.0189209
-0.178528	-0.0195313
-0.150146	-0.0222778
-0.108337	-0.0262451
-0.0357056	-0.0296021
0.0457764	-0.0323486
0.0973511	-0.03479
0.131531	-0.0363159
0.125122	-0.0369263
0.098877	-0.0369263
0.0579834	-0.0366211
0.0167847	-0.0360107
-0.0180054	-0.0350952
-0.0408936	-0.0338745
-0.0463867	-0.0317383
-0.032959	-0.0302124
-0.022583	-0.0280762
-0.0177002	-0.0247192
-0.0161743	-0.0204468
-0.020752	-0.0161743
-0.0244141	-0.012207
-0.0201416	-0.0088501
-0.00671387	-0.0088501
0.0119019	-0.012207
0.0286865	-0.017395
0.0265503	-0.0231934
0.0213623	-0.0299072
0.0128174	-0.0375366
0.00579834	-0.0442505
0.0119019	-0.0494385
0.017395	-0.0518799
0.0119019	-0.0509644
-0.00305176	-0.0476074
-0.0219727	-0.045166
-0.0323486	-0.043335
-0.0408936	-0.0415039
-0.0408936	-0.0390625
-0.0265503	-0.0372314
-0.0164795	-0.0375366
-0.00976563	-0.0390625
-0.00335693	-0.0411987
-0.00427246	-0.0427246
-0.00305176	-0.0439453
0.00671387	-0.0439453
0.00579834	-0.0427246
-0.0125122	-0.039978
-0.0143433	-0.0363159
-0.00244141	-0.032959
0.00427246	-0.0317383
0.0177002	-0.0323486
0.0595093	-0.0338745
0.0912476	-0.03479
0.0765991	-0.0357056
0.0357056	-0.0366211
0.00976563	-0.0372314
-0.00823975	-0.038147
-0.0338745	-0.0393677
-0.050354	-0.0415039
-0.043335	-0.0439453
-0.0308228	-0.0445557
-0.0372314	-0.043335
-0.0338745	-0.0408936
0.0012207	-0.0378418
0.0189209	-0.0350952
0.0192261	-0.0335693
0.012207	-0.0326538
0.0140381	-0.0314331
0.0183105	-0.0299072
0.0183105	-0.0280762
0.0100708	-0.0265503
0.00915527	-0.0253296
0.0125122	-0.0234985
0.00488281	-0.0222778
-0.0140381	-0.0228882
-0.0189209	-0.0253296
-0.00335693	-0.0271606
0.00671387	-0.0280762
0.00366211	-0.0280762
-0.0167847	-0.027771
-0.0405884	-0.0283813
-0.0509644	-0.0296021
-0.0595093	-0.0299072
-0.0613403	-0.0280762
-0.0497437	-0.0247192
-0.0109863	-0.0192261
0.0250244	-0.0115967
0.038147	-0.00427246
0.0283813	0.000610352
0.0305176	0.00427246
0.0527954	0.00793457
0.0610352	0.010376
0.0460815	0.0109863
0.0244141	0.0106812
0.0134277	0.0112915
0.00762939	0.0137329
-0.00823975	0.0177002
-0.0354004	0.0231934
-0.0515747	0.0296021
-0.0442505	0.0357056
-0.0296021	0.0421143
-0.0115967	0.0491333
0.0106812	0.0558472
0.0466919	0.0619507
0.0830078	0.0668335
0.0897217	0.0708008
0.0674438	0.0738525
0.0265503	0.0753784
-0.0164795	0.0762939
-0.06073	0.0772095
-0.088501	0.0765991
-0.0982666	0.0732422
-0.0860596	0.0686646
-0.0564575	0.0637817
-0.017395	0.0585938
0.0134277	0.0521851
0.022583	0.0442505
0.0299072	0.0354004
0.0317383	0.0262451
0.0372314	0.0195313
0.0393677	0.015564
0.0357056	0.0131226
0.0317383	0.0112915
0.0189209	0.00976563
-0.00183105	0.00946045
-0.0268555	0.00946045
-0.0466919	0.00915527
-0.0500488	0.00732422
-0.0442505	0.00427246
-0.0253296	0
0.00427246	-0.00488281
0.0338745	-0.0109863
0.0445557	-0.0170898
0.0326538	-0.0219727
0.0167847	-0.0271606
0.00152588	-0.0332642
-0.0152588	-0.0408936
-0.0332642	-0.0485229
-0.0344849	-0.0558472
-0.0131226	-0.0622559
-0.00152588	-0.0671387
0.00244141	-0.0704956
0.0192261	-0.0726318
0.0320435	-0.0726318
0.0152588	-0.0708008
-0.0271606	-0.0665283
-0.0476074	-0.06073
-0.0274658	-0.0537109
-0.00610352	-0.0469971
-0.00274658	-0.0430298
0.0167847	-0.0427246
0.0543213	-0.0445557
0.0683594	-0.0469971
0.0497437	-0.0512695
0.0241089	-0.0598145
0.0158691	-0.072937
0.0186157	-0.0891113
0.0152588	-0.106506
-0.0100708	-0.122375
-0.0213623	-0.136108
-0.0164795	-0.145569
-0.0250244	-0.147095
-0.0415039	-0.137939
-0.0335693	-0.114441
-0.00762939	-0.0738525
0.0100708	-0.0134277
0.00305176	0.0671387
-0.00823975	0.16571
-0.0115967	0.279236
-0.0210571	0.406189
-0.0408936	0.544434
-0.0488281	0.687561
-0.0268555	0.821838
0.000610352	0.935669
0.0112915	1.02295
0.00244141	1.08002
0.0177002	1.10016
0.0473022	1.08093
0.0524902	1.02234
0.0357056	0.926819
0.0289917	0.797424
0.0292969	0.640564
-0.000915527	0.466309
-0.0637817	0.288086
-0.10437	0.120239
-0.0881958	-0.0286865
-0.0570679	-0.15564
-0.131226	-0.257568
-0.30365	-0.329895
-0.308533	-0.37262
-0.0994873	-0.389709
0.274353	-0.385742
0.708008	-0.364685
0.890808	-0.332031
0.700378	-0.292358
0.354919	-0.250244
0.00793457	-0.210266
-0.320435	-0.174255
-0.589905	-0.143433
-0.77179	-0.117188
-0.814209	-0.0964355
-0.671692	-0.0802612
-0.400391	-0.0686646
-0.107117	-0.0613403
0.166321	-0.0582886
0.423889	-0.0592041
0.644226	-0.0628662
0.739441	-0.067749
0.676575	-0.0723267
0.475769	-0.0750732
0.184937	-0.0762939
-0.131836	-0.0772095
-0.398865	-0.0778198
-0.554504	-0.078125
-0.587463	-0.0769043
-0.50354	-0.0735474
-0.341797	-0.0680542
-0.136719	-0.0619507
0.0848389	-0.0561523
0.294189	-0.0512695
0.405579	-0.0479126
0.404358	-0.0466919
0.308838	-0.0463867
0.0637817	-0.0460815
-0.0546265	-0.0482178
0.183105	-0.0524902
0.032959	-0.0570679
-0.189209	-0.0610352
-0.264893	-0.0640869
-0.33783	-0.0653076
-0.256348	-0.0637817
-0.0952148	-0.0604248
-0.0820923	-0.055542
0.122681	-0.0506592
0.451965	-0.0454712
0.371399	-0.0408936
0.195923	-0.0369263
0.00579834	-0.0338745
-0.162659	-0.0323486
-0.226746	-0.0314331
-0.20813	-0.0299072
-0.123596	-0.0280762
-0.00488281	-0.0259399
0.0549316	-0.0234985
0.0299072	-0.0204468
-0.00274658	-0.0177002
0.0100708	-0.0149536
0.0732422	-0.0125122
0.145569	-0.010376
0.144348	-0.00915527
0.0674438	-0.00854492
-0.0311279	-0.00823975
-0.090332	-0.00732422
-0.10437	-0.00549316
-0.0933838	-0.00305176
-0.0793457	0
-0.0704956	0.00366211
-0.0494385	0.00640869
-0.0234985	0.00640869
-0.0131226	0.00549316
-0.000305176	0.00457764
0.0466919	0.00335693
0.0793457	0.00183105
0.0643921	0
0.0360107	-0.000610352
0.0152588	0.0012207
0.0241089	0.00549316
0.0305176	0.0119019
0.00732422	0.020752
-0.022583	0.0314331
-0.0177002	0.0430298
-0.00823975	0.0527954
-0.0149536	0.0601196
-0.0222778	0.0650024
-0.0189209	0.0683594
-0.00610352	0.0714111
-0.00213623	0.0744629
-0.00549316	0.0775146
-0.00671387	0.0808716
0.00396729	0.0842285
0.0128174	0.088501
0.000915527	0.093689
-0.0213623	0.100098
-0.0274658	0.107422
0.00152588	0.115356
0.0357056	0.122681
0.0473022	0.129089
0.0335693	0.133972
0.0253296	0.138855
0.0216675	0.143433
-0.012207	0.14679
-0.0491333	0.149231
-0.055542	0.151367
-0.0305176	0.151672
-0.0231934	0.148621
-0.0262451	0.143433
-0.0131226	0.136719
0.0125122	0.128174
0.0375366	0.119019
0.0402832	0.110474
0.03479	0.102539
0.038147	0.0952148
0.0439453	0.0897217
0.0296021	0.0881958
0.000305176	0.0900269
-0.00518799	0.0918579
0.0140381	0.0927734
0.0189209	0.0930786
-0.0357056	0.093689
-0.0939941	0.0927734
-0.102539	0.0881958
-0.0778198	0.0793457
-0.0564575	0.0674438
-0.0302124	0.0537109
0.0112915	0.0393677
0.0509644	0.0244141
0.0723267	0.0100708
0.0701904	-0.00305176
0.0723267	-0.0143433
0.0674438	-0.0231934
0.0317383	-0.0296021
-0.0241089	-0.0341797
-0.0561523	-0.0372314
-0.0549316	-0.038147
-0.0424194	-0.0387573
-0.0317383	-0.0402832
-0.0128174	-0.0421143
0.020752	-0.0436401
0.0494385	-0.0460815
0.0405884	-0.0494385
0.00854492	-0.0524902
-0.0137329	-0.0570679
-0.0143433	-0.0634766
-0.0234985	-0.0704956
-0.0442505	-0.0762939
-0.0396729	-0.0805664
-0.010376	-0.0830078
0.000610352	-0.0839233
-0.0375366	-0.0827026
-0.126648	-0.0796509
-0.101929	-0.0778198
0.302734	-0.0775146
0.630188	-0.0778198
0.456543	-0.0775146
0.106201	-0.0769043
-0.270691	-0.0775146
-0.597534	-0.0799561
-0.677185	-0.0836182
-0.509338	-0.0872803
-0.227356	-0.0900269
0.0646973	-0.0906372
0.272217	-0.0888062
0.386047	-0.085144
0.406189	-0.0808716
0.356445	-0.0762939
0.278015	-0.0720215
0.153809	-0.0686646
0.00427246	-0.0665283
-0.145569	-0.065918
-0.274353	-0.0653076
-0.324707	-0.0640869
-0.276794	-0.0622559
-0.180664	-0.0601196
-0.0762939	-0.0582886
0.0195313	-0.0576782
0.0820923	-0.0579834
0.129395	-0.0592041
0.166931	-0.0595093
0.181274	-0.0601196
0.169373	-0.0613403
0.107422	-0.0634766
0.0149536	-0.0680542
-0.0744629	-0.0726318
-0.145569	-0.0753784
-0.197449	-0.0756836
-0.198364	-0.0738525
-0.145264	-0.071106
-0.0372314	-0.067749
0.0875854	-0.0628662
0.184021	-0.0567627
0.22522	-0.0506592
0.198059	-0.0454712
0.133667	-0.0424194
0.0463867	-0.0418091
-0.0479126	-0.043335
-0.137634	-0.0454712
-0.194702	-0.0485229
-0.201721	-0.0521851
-0.174255	-0.0558472
-0.114441	-0.0595093
-0.0296021	-0.0613403
0.0537109	-0.0610352
0.106201	-0.0595093
0.133362	-0.057373
0.13855	-0.0537109
0.116882	-0.0485229
0.0796509	-0.0418091
0.0354004	-0.0360107
-0.00518799	-0.0320435
-0.0393677	-0.0305176
-0.0704956	-0.0314331
-0.0836182	-0.0344849
-0.0765991	-0.0384521
-0.0540161	-0.0424194
-0.022583	-0.0463867
0.0149536	-0.0500488
0.0491333	-0.0537109
0.0640869	-0.0561523
0.0524902	-0.0567627
0.027771	-0.0558472
-0.0012207	-0.0540161
-0.0299072	-0.0515747
-0.0485229	-0.0506592
-0.0476074	-0.050354
-0.0302124	-0.0506592
-0.00396729	-0.0509644
0.0167847	-0.0518799
0.0314331	-0.0527954
0.0396729	-0.0537109
0.0369263	-0.0543213
0.0250244	-0.0543213
0.00640869	-0.0518799
-0.0146484	-0.0479126
-0.0308228	-0.0442505
-0.0378418	-0.0418091
-0.0323486	-0.0396729
-0.0222778	-0.0387573
-0.0167847	-0.0393677
-0.0186157	-0.0415039
-0.020752	-0.0448608
-0.0192261	-0.0488281
-0.0146484	-0.0518799
-0.00183105	-0.0540161
0.0396729	-0.0549316
0.0845337	-0.0552368
0.0991821	-0.0546265
0.0946045	-0.0531006
0.0726318	-0.0518799
0.0177002	-0.0515747
-0.0653076	-0.0524902
-0.0967407	-0.0543213
-0.085144	-0.0570679
-0.0823975	-0.0598145
-0.0683594	-0.0616455
-0.0344849	-0.0653076
0.00823975	-0.0698853
0.0317383	-0.0735474
0.0302124	-0.0762939
0.0448608	-0.0775146
0.0619507	-0.0778198
0.0524902	-0.0769043
0.0204468	-0.0750732
-0.00457764	-0.0720215
-0.0137329	-0.0683594
-0.0183105	-0.0646973
-0.0296021	-0.0610352
-0.0338745	-0.057373
-0.0247192	-0.0543213
-0.0192261	-0.0509644
-0.0219727	-0.0479126
-0.00976563	-0.0463867
0.00915527	-0.0466919
0.022583	-0.0473022
0.015564	-0.0473022
0	-0.0463867
-0.00183105	-0.0445557
0.0125122	-0.043335
0.0109863	-0.0436401
-0.000305176	-0.0460815
-0.0137329	-0.0494385
-0.0112915	-0.0515747
0.00213623	-0.0527954
0.00305176	-0.0534058
0.00671387	-0.0537109
0.0241089	-0.0540161
0.0408936	-0.0546265
0.032959	-0.0546265
0.0134277	-0.0531006
0.00854492	-0.050354
0.00335693	-0.0469971
-0.0320435	-0.0448608
-0.06073	-0.045166
-0.0558472	-0.0469971
-0.0265503	-0.0500488
0.00549316	-0.0531006
0.00854492	-0.0564575
0.0143433	-0.0592041
0.0363159	-0.0613403
0.0463867	-0.0616455
0.0357056	-0.0610352
0.00732422	-0.0598145
-0.0131226	-0.0576782
-0.0222778	-0.0543213
-0.0372314	-0.0506592
-0.0482178	-0.0473022
-0.0460815	-0.0439453
-0.027771	-0.0405884
0.00335693	-0.0366211
0.0180054	-0.0332642
0.0311279	-0.0299072
0.0396729	-0.0250244
0.0424194	-0.0186157
0.0231934	-0.0119019
-0.000305176	-0.00579834
-0.0265503	0.000610352
-0.0311279	0.00854492
-0.0164795	0.0167847
-0.00946045	0.0250244
-0.00671387	0.032959
-0.0192261	0.0393677
-0.0167847	0.0430298
-0.00762939	0.0436401
0.0222778	0.0430298
0.0485229	0.043335
0.0601196	0.0445557
0.0598145	0.0454712
0.0286865	0.045166
0.00366211	0.0439453
-0.0335693	0.0421143
-0.0665283	0.0415039
-0.0671387	0.0427246
-0.0549316	0.0445557
-0.0265503	0.0448608
0.00427246	0.0430298
0.0268555	0.038147
0.0479126	0.0302124
0.0469971	0.0204468
0.0357056	0.0106812
0.00671387	0.0012207
-0.0283813	-0.00793457
-0.0415039	-0.0164795
-0.0372314	-0.0234985
-0.0222778	-0.0292969
-0.0152588	-0.0341797
-0.00335693	-0.038147
0.027771	-0.0405884
0.0540161	-0.0424194
0.0619507	-0.0445557
0.0415039	-0.0463867
0.0198364	-0.0488281
-0.0186157	-0.0512695
-0.043335	-0.0534058
-0.0686646	-0.0552368
-0.0714111	-0.0570679
-0.0482178	-0.0585938
-0.0326538	-0.0604248
0.0146484	-0.0622559
0.0183105	-0.0656128
0.0302124	-0.0686646
0.0146484	-0.0723267
-0.00213623	-0.0762939
-0.00335693	-0.0811768
-0.00396729	-0.0857544
0.027771	-0.0894165
0.0289917	-0.0918579
0.0332642	-0.0921631
0.0219727	-0.0900269
0.0250244	-0.0857544
0.0143433	-0.0811768
-0.00488281	-0.0775146
-0.0183105	-0.0756836
-0.0170898	-0.0765991
-0.012207	-0.0805664
-0.0231934	-0.0872803
-0.0292969	-0.0973511
-0.0247192	-0.110779
0.00274658	-0.128174
0.0286865	-0.14679
0.0415039	-0.164185
0.0442505	-0.176697
0.0463867	-0.18219
0.032959	-0.176392
-0.00762939	-0.156555
-0.0534058	-0.120544
-0.0680542	-0.0662231
-0.0820923	0.00671387
-0.062561	0.0973511
-0.0283813	0.202637
0.0167847	0.320129
0.0537109	0.450745
0.055542	0.591125
0.0463867	0.731201
0.0125122	0.858154
0.00946045	0.96344
-0.0170898	1.04126
-0.0253296	1.08521
-0.0390625	1.08978
-0.0228882	1.05286
-0.00701904	0.973206
0.0170898	0.853882
0.0582886	0.701599
0.0738525	0.525208
0.0863647	0.338135
0.0216675	0.15564
-0.0393677	-0.00976563
-0.128784	-0.149231
-0.283203	-0.259399
-0.414124	-0.341187
-0.323486	-0.394287
0.0189209	-0.418091
0.471497	-0.41687
0.819397	-0.396423
0.793457	-0.363464
0.524292	-0.324707
0.15625	-0.28595
-0.270386	-0.250854
-0.626221	-0.220337
-0.834961	-0.193787
-0.82428	-0.170898
-0.688477	-0.151367
-0.41748	-0.134888
-0.015564	-0.12207
0.363159	-0.114136
0.692444	-0.110779
0.84259	-0.110168
0.79895	-0.110168
0.549316	-0.109558
0.185852	-0.108032
-0.195007	-0.106812
-0.536194	-0.104675
-0.692139	-0.101624
-0.670471	-0.0985718
-0.447388	-0.0976563
-0.137634	-0.0973511
0.139771	-0.0973511
0.35614	-0.0967407
0.437622	-0.0961304
0.410156	-0.0958252
0.307312	-0.0952148
0.13092	-0.093689
-0.0250244	-0.0918579
-0.131226	-0.0912476
-0.195007	-0.0894165
-0.175171	-0.0854492
-0.13092	-0.0808716
-0.0656128	-0.0765991
-0.00274658	-0.0735474
0.0112915	-0.0720215
0.00762939	-0.0698853
-0.0106812	-0.0668335
-0.0405884	-0.0628662
-0.0439453	-0.0604248
-0.0241089	-0.0619507
-0.00640869	-0.0662231
0.00518799	-0.0708008
0.012207	-0.0747681
0.0161743	-0.0793457
0.0311279	-0.0839233
0.0527954	-0.0878906
0.0497437	-0.0906372
0.038147	-0.0921631
0.0357056	-0.0918579
0.0268555	-0.088501
0.0186157	-0.0827026
0.0259399	-0.0753784
0.0100708	-0.0686646
-0.0302124	-0.0628662
-0.0646973	-0.0582886
-0.0811768	-0.0543213
-0.0680542	-0.0521851
-0.0610352	-0.0509644
-0.0360107	-0.0506592
0.0189209	-0.050354
0.0497437	-0.0500488
0.0570679	-0.0497437
0.0405884	-0.0491333
0.0119019	-0.0473022
0.0158691	-0.043335
0.0296021	-0.0378418
0.0378418	-0.0326538
0.0469971	-0.0286865
0.0460815	-0.0247192
0.0161743	-0.0189209
-0.0106812	-0.0109863
-0.0354004	-0.00244141
-0.06073	0.00518799
-0.0738525	0.0119019
-0.0747681	0.0180054
-0.0753784	0.0231934
-0.0576782	0.0271606
-0.0161743	0.0292969
0.0238037	0.0317383
0.065918	0.0338745
0.0836182	0.0344849
0.0616455	0.0344849
0.0375366	0.0354004
0.0183105	0.0387573
0.00854492	0.0442505
-0.00335693	0.0506592
-0.0219727	0.0570679
-0.0415039	0.0646973
-0.0405884	0.0735474
-0.0289917	0.0820923
-0.0234985	0.0900269
-0.0161743	0.0964355
-0.0302124	0.100403
-0.0195313	0.102539
0.0112915	0.10376
0.0323486	0.105896
0.0427246	0.108032
0.0204468	0.110474
0.0262451	0.112
0.0112915	0.112915
-0.00976563	0.114136
-0.0164795	0.116272
-0.0311279	0.117798
-0.0100708	0.117188
-0.00213623	0.114746
0.0286865	0.111389
0.032959	0.108643
0.0317383	0.106201
0.055542	0.104675
0.0479126	0.104065
0.0326538	0.102539
-0.0177002	0.098877
-0.039978	0.0933838
-0.06073	0.0881958
-0.0653076	0.0830078
-0.062561	0.0750732
-0.0604248	0.0637817
-0.017395	0.0500488
0.0112915	0.0344849
0.045166	0.0183105
0.045166	0.00274658
0.0582886	-0.012207
0.0543213	-0.0256348
0.0427246	-0.0369263
0.0088501	-0.0473022
-0.0149536	-0.0561523
-0.045166	-0.0628662
-0.0656128	-0.0671387
-0.0628662	-0.0701904
-0.038147	-0.0735474
-0.0183105	-0.0769043
-0.0186157	-0.0805664
-0.0088501	-0.0848389
0.00793457	-0.0891113
0.0350952	-0.0930786
0.0305176	-0.0970459
0.0238037	-0.101013
0.022583	-0.10437
0.0292969	-0.107117
0.0109863	-0.108337
-0.00732422	-0.108643
-0.0170898	-0.108337
-0.00915527	-0.107117
-0.0112915	-0.106201
-0.0344849	-0.10498
-0.0204468	-0.103455
0.00610352	-0.101318
-0.0308228	-0.0985718
-0.0952148	-0.0958252
-0.00946045	-0.0949097
0.327454	-0.0949097
0.535278	-0.0964355
0.360718	-0.098877
0.0405884	-0.101013
-0.318909	-0.102539
-0.674744	-0.10376
-0.731506	-0.105286
-0.523071	-0.107422
-0.188904	-0.109558
0.134583	-0.111084
0.418701	-0.110779
0.556641	-0.109253
0.524902	-0.107422
0.402527	-0.105591
0.308533	-0.10437
0.149231	-0.103455
-0.118408	-0.102234
-0.327148	-0.100708
-0.421753	-0.0997925
-0.404968	-0.098877
-0.357971	-0.0970459
-0.195923	-0.0952148
0.0088501	-0.0939941
0.161743	-0.0933838
0.204468	-0.0930786
0.240784	-0.0927734
0.244446	-0.0927734
0.17334	-0.0924683
0.0442505	-0.0918579
-0.0616455	-0.0915527
-0.1297	-0.0915527
-0.209351	-0.0909424
-0.204163	-0.0891113
-0.12085	-0.0854492
0.0149536	-0.0799561
0.0787354	-0.0744629
0.126038	-0.0686646
0.133362	-0.062561
0.114746	-0.0570679
0.0378418	-0.0534058
-0.0244141	-0.0500488
-0.0442505	-0.0479126
-0.0622559	-0.0497437
-0.0695801	-0.0546265
-0.0244141	-0.0604248
-0.0100708	-0.065918
-0.00915527	-0.0708008
0.0415039	-0.0753784
0.0430298	-0.0796509
0.06073	-0.083313
0.0170898	-0.0845337
-0.00305176	-0.0848389
0.00274658	-0.0839233
-0.0183105	-0.0814819
-0.0213623	-0.0793457
-0.0289917	-0.078125
-0.00793457	-0.0772095
-0.0213623	-0.0765991
-0.00396729	-0.0765991
-0.00946045	-0.0772095
-0.00457764	-0.0775146
0.0216675	-0.0765991
0.0167847	-0.0744629
0.0302124	-0.0708008
0.0180054	-0.0662231
-0.00396729	-0.0613403
-0.0164795	-0.0567627
-0.0473022	-0.0537109
-0.0561523	-0.0524902
-0.0650024	-0.0537109
-0.0460815	-0.055542
-0.0222778	-0.0579834
0.00244141	-0.0601196
0.0283813	-0.0613403
0.0692749	-0.0622559
0.0979614	-0.0640869
0.0714111	-0.0656128
0.0799561	-0.0656128
0.0631714	-0.0628662
0.0216675	-0.0601196
-0.0387573	-0.0595093
-0.0588989	-0.0610352
-0.0515747	-0.0622559
-0.0656128	-0.0628662
-0.06073	-0.0631714
-0.0415039	-0.065918
0.00823975	-0.0701904
-0.00274658	-0.0732422
-0.00396729	-0.0747681
0.00854492	-0.0741577
0.043335	-0.0726318
0.0247192	-0.0704956
-0.0128174	-0.0686646
-0.0088501	-0.0680542
-0.0012207	-0.0686646
0.0125122	-0.0692749
-0.0115967	-0.0692749
-0.00640869	-0.0698853
0.00854492	-0.0717163
0.0314331	-0.0732422
0.0115967	-0.0744629
-0.0296021	-0.0741577
-0.00823975	-0.0723267
0.0247192	-0.0704956
0.0238037	-0.0689697
-0.00823975	-0.0671387
-0.0189209	-0.0646973
0.0134277	-0.0622559
0.00244141	-0.0604248
-0.0271606	-0.0588989
-0.0326538	-0.0576782
-0.00518799	-0.057373
0.00854492	-0.057373
-0.0192261	-0.057373
-0.0314331	-0.0579834
-0.00152588	-0.0582886
0.0183105	-0.057373
0.0210571	-0.0549316
0.0115967	-0.0521851
0.0387573	-0.0506592
0.0463867	-0.0509644
0.00732422	-0.0521851
-0.0158691	-0.0518799
-0.0195313	-0.0500488
-0.000610352	-0.0479126
-0.0344849	-0.0488281
-0.0537109	-0.0527954
-0.0521851	-0.0570679
-0.00732422	-0.0595093
0.0146484	-0.0601196
0.0161743	-0.0598145
0.0396729	-0.0598145
0.0686646	-0.0619507
0.0695801	-0.0656128
-0.000610352	-0.0698853
-0.0482178	-0.0735474
-0.0494385	-0.0759888
-0.015564	-0.078125
-0.0112915	-0.0796509
-0.00305176	-0.0802612
0.0222778	-0.0796509
0.0335693	-0.0784302
0.0234985	-0.0772095
-0.0146484	-0.0753784
-0.0592041	-0.0720215
-0.0415039	-0.067749
0.00335693	-0.0640869
0.0338745	-0.0616455
0.0247192	-0.06073
0.0265503	-0.0601196
0.0390625	-0.0598145
0.0247192	-0.0588989
-0.0201416	-0.0561523
-0.0714111	-0.0531006
-0.0726318	-0.0524902
-0.0427246	-0.0540161
-0.0305176	-0.0564575
-0.0241089	-0.0576782
-0.0338745	-0.0582886
0.00518799	-0.0585938
0.0537109	-0.0582886
0.0897217	-0.0564575
0.0912476	-0.0527954
0.0939941	-0.0460815
0.107117	-0.0378418
0.0808716	-0.0289917
0.00701904	-0.0213623
-0.0857544	-0.0143433
-0.128174	-0.00732422
-0.115662	-0.000915527
-0.0823975	0.00396729
-0.0640869	0.00732422
-0.0454712	0.00976563
0.000915527	0.012207
0.038147	0.0143433
0.0579834	0.0170898
0.0448608	0.0210571
0.0326538	0.0259399
0.0421143	0.0302124
0.0341797	0.0335693
0.0265503	0.0360107
-0.0317383	0.0387573
-0.0964355	0.0415039
-0.0756836	0.0424194
-0.012207	0.0418091
0.0338745	0.0415039
0.0231934	0.0418091
0.00274658	0.0427246
0.0442505	0.0442505
0.0531006	0.045166
0.000610352	0.043335
-0.043335	0.0375366
-0.0088501	0.0280762
0.0247192	0.0180054
0.0259399	0.00793457
-0.00671387	-0.00183105
-0.00549316	-0.0109863
0.00854492	-0.0198364
0.00823975	-0.027771
-0.00244141	-0.0341797
-0.0167847	-0.0378418
-0.020752	-0.0387573
-0.00640869	-0.0372314
-0.0106812	-0.03479
-0.0100708	-0.032959
-0.00946045	-0.0326538
0.0228882	-0.0341797
0.0338745	-0.0360107
-0.00946045	-0.0384521
-0.0387573	-0.0421143
-0.0387573	-0.0482178
-0.0180054	-0.0570679
-0.0143433	-0.0662231
0.00335693	-0.0738525
0.0204468	-0.0799561
0.0491333	-0.0845337
0.045166	-0.0875854
0.0439453	-0.0897217
0.0115967	-0.0906372
0.0088501	-0.0897217
0.0149536	-0.0869751
0.000610352	-0.083313
-0.0305176	-0.0802612
-0.0808716	-0.0784302
-0.0939941	-0.0784302
-0.0689697	-0.0799561
-0.0439453	-0.0827026
-0.0198364	-0.0863647
0.0280762	-0.090332
0.0683594	-0.093689
0.0799561	-0.0961304
0.0939941	-0.0979614
0.0949097	-0.100708
0.0546265	-0.106201
-0.00305176	-0.115051
-0.062561	-0.126343
-0.0796509	-0.139465
-0.0692749	-0.151062
-0.0567627	-0.159302
-0.0286865	-0.159607
0.027771	-0.149841
0.0500488	-0.127869
0.0341797	-0.0906372
0.0332642	-0.0320435
0.0372314	0.0494385
0.0384521	0.149231
0.0100708	0.263062
-0.00183105	0.391235
-0.012207	0.531921
-0.0332642	0.677185
-0.0634766	0.814819
-0.0628662	0.934143
-0.0622559	1.02905
-0.0390625	1.09253
-0.0305176	1.11786
0.015564	1.09985
0.0482178	1.03699
0.0604248	0.931396
0.065918	0.788879
0.0744629	0.617676
0.0265503	0.429077
-0.0582886	0.236511
-0.133057	0.0543213
-0.188904	-0.105286
-0.32135	-0.234985
-0.343628	-0.3302
-0.134583	-0.39093
0.274353	-0.418701
0.686646	-0.41687
0.844116	-0.391541
0.650635	-0.350952
0.289307	-0.302734
-0.093689	-0.254211
-0.457458	-0.209656
-0.695496	-0.172424
-0.713501	-0.144043
-0.586853	-0.123901
-0.423889	-0.11261
-0.199585	-0.108032
0.0967407	-0.107727
0.39978	-0.109558
0.602722	-0.112915
0.724792	-0.116577
0.680847	-0.120239
0.446472	-0.122986
0.0595093	-0.123901
-0.326233	-0.121765
-0.605469	-0.118408
-0.715332	-0.115356
-0.665588	-0.11322
-0.469055	-0.110168
-0.195923	-0.105591
0.0848389	-0.0994873
0.328674	-0.0942993
0.511169	-0.090332
0.589905	-0.0891113
0.524902	-0.0894165
0.327454	-0.090332
0.0891113	-0.0900269
-0.148315	-0.0897217
-0.317078	-0.0900269
-0.405273	-0.0915527
-0.357666	-0.0933838
-0.238342	-0.0933838
-0.0692749	-0.0912476
0.0738525	-0.0872803
0.185547	-0.0827026
0.224609	-0.0775146
0.212402	-0.071106
0.150757	-0.0643921
0.0601196	-0.0601196
-0.0491333	-0.0588989
-0.144653	-0.0598145
-0.184631	-0.0616455
-0.163574	-0.0628662
-0.102844	-0.0634766
-0.0262451	-0.0643921
0.0314331	-0.0650024
0.0616455	-0.0637817
0.0802612	-0.06073
0.0939941	-0.0567627
0.0946045	-0.0521851
0.0653076	-0.0482178
0.0280762	-0.0454712
-0.0244141	-0.043335
-0.0601196	-0.0411987
-0.0827026	-0.0396729
-0.0756836	-0.0393677
-0.0588989	-0.0402832
-0.0115967	-0.0408936
0.0238037	-0.0405884
0.022583	-0.0384521
0.00610352	-0.0341797
-0.0140381	-0.0274658
-0.0280762	-0.0180054
-0.0125122	-0.00762939
0.0405884	0.00244141
0.0921631	0.0100708
0.090332	0.0146484
0.0515747	0.0164795
0.0228882	0.0164795
-0.0216675	0.0158691
-0.0439453	0.0143433
-0.045166	0.0119019
-0.0360107	0.00976563
-0.0305176	0.00946045
-0.0424194	0.012207
-0.0592041	0.0186157
-0.0494385	0.027771
-0.0195313	0.0396729
0.0152588	0.0527954
0.0534058	0.0662231
0.0637817	0.078125
0.0701904	0.0878906
0.055542	0.0949097
0.0430298	0.100098
-0.00427246	0.105286
-0.0460815	0.108948
-0.0485229	0.109863
-0.0421143	0.109253
-0.0622559	0.109558
-0.0949097	0.111084
-0.0497437	0.112915
-0.0012207	0.114746
0.0372314	0.117188
0.0509644	0.120239
0.0622559	0.123596
0.0997925	0.127258
0.106812	0.131531
0.0961304	0.136108
0.0515747	0.140381
-0.00671387	0.143738
-0.057373	0.144958
-0.0790405	0.145264
-0.093689	0.145569
-0.108032	0.145874
-0.0820923	0.145264
-0.0341797	0.143433
0.00518799	0.140381
0.0305176	0.137329
0.0604248	0.134888
0.0656128	0.131531
0.0543213	0.127258
0.0186157	0.12146
-0.0234985	0.11322
-0.0332642	0.102539
-0.0469971	0.0909424
-0.0421143	0.0793457
-0.0363159	0.0674438
-0.0131226	0.0561523
0.0271606	0.043335
0.0488281	0.0308228
0.039978	0.020752
0.0247192	0.012207
0.0302124	0.00305176
0.0341797	-0.00640869
0.0100708	-0.0161743
-0.0216675	-0.0259399
-0.0231934	-0.03479
-0.0338745	-0.0430298
-0.0579834	-0.0506592
-0.0744629	-0.0582886
-0.0585938	-0.0650024
0.00183105	-0.0701904
0.0488281	-0.0741577
0.0616455	-0.0769043
0.0802612	-0.0796509
0.0836182	-0.0823975
0.0668335	-0.085144
0.0119019	-0.0888062
-0.0488281	-0.0927734
-0.0827026	-0.0964355
-0.0805664	-0.0997925
-0.0674438	-0.103455
-0.050354	-0.106201
-0.0210571	-0.107117
0.00640869	-0.105896
0.0408936	-0.102844
0.0671387	-0.0994873
0.0222778	-0.0973511
-0.0927734	-0.0970459
-0.0646973	-0.0970459
0.231934	-0.0958252
0.497437	-0.0930786
0.358582	-0.0900269
0.0396729	-0.0866699
-0.298157	-0.083313
-0.61615	-0.0827026
-0.665588	-0.0839233
-0.418091	-0.0860596
-0.0598145	-0.0875854
0.256653	-0.0881958
0.414429	-0.0881958
0.386963	-0.088501
0.261841	-0.0881958
0.12146	-0.0869751
0.0109863	-0.0854492
-0.0302124	-0.0839233
-0.0292969	-0.0817871
-0.0219727	-0.0790405
-0.00732422	-0.0756836
-0.0436401	-0.0735474
-0.0796509	-0.0732422
-0.104065	-0.0750732
-0.130615	-0.0784302
-0.134277	-0.0830078
-0.140991	-0.0872803
-0.0906372	-0.0900269
0.00640869	-0.0909424
0.101318	-0.0897217
0.186157	-0.0860596
0.213928	-0.0811768
0.212708	-0.0759888
0.162048	-0.071106
0.0549316	-0.0665283
-0.0448608	-0.0622559
-0.124817	-0.0576782
-0.178833	-0.0537109
-0.184631	-0.0527954
-0.150452	-0.0543213
-0.0720215	-0.0588989
0.0271606	-0.0643921
0.088501	-0.0695801
0.135193	-0.0741577
0.124817	-0.0775146
0.0686646	-0.0799561
0.00640869	-0.0817871
-0.0494385	-0.0820923
-0.0869751	-0.0790405
-0.108948	-0.0738525
-0.0820923	-0.0680542
-0.017395	-0.062561
0.0219727	-0.0579834
0.0491333	-0.0552368
0.0665283	-0.0549316
0.0653076	-0.0558472
0.039978	-0.0579834
-0.00244141	-0.0610352
-0.027771	-0.0640869
-0.0311279	-0.0662231
-0.0393677	-0.0665283
-0.0415039	-0.0646973
-0.0396729	-0.0610352
-0.0265503	-0.057373
0.00244141	-0.0549316
0.0338745	-0.0540161
0.0457764	-0.0540161
0.0546265	-0.0546265
0.0509644	-0.0576782
0.0421143	-0.0622559
0.0222778	-0.067749
-0.0161743	-0.0720215
-0.0411987	-0.0741577
-0.0570679	-0.0741577
-0.0460815	-0.0726318
-0.0360107	-0.0698853
-0.0137329	-0.0656128
0.00305176	-0.0610352
0.0192261	-0.0561523
0.0509644	-0.0512695
0.0512695	-0.0476074
0.0457764	-0.0460815
0.0213623	-0.0460815
-0.00732422	-0.0469971
-0.0375366	-0.0479126
-0.0570679	-0.0491333
-0.0595093	-0.0494385
-0.0338745	-0.0488281
-0.0100708	-0.0485229
0.00396729	-0.0485229
0.0332642	-0.0482178
0.0314331	-0.0476074
0.0128174	-0.0469971
-0.00183105	-0.0457764
-0.00549316	-0.045166
0.00823975	-0.045166
0.0198364	-0.0445557
0.0128174	-0.0445557
0.0238037	-0.0445557
0.0244141	-0.0445557
0.00701904	-0.0442505
-0.0247192	-0.0436401
-0.050354	-0.0430298
-0.0460815	-0.0430298
-0.0366211	-0.0436401
-0.00762939	-0.045166
0.00518799	-0.0466919
0.000305176	-0.0473022
0.00579834	-0.0460815
0.0140381	-0.0442505
0.0195313	-0.0427246
0.0186157	-0.0418091
-0.0289917	-0.0415039
-0.0152588	-0.0408936
0.0131226	-0.0396729
-0.00152588	-0.0375366
-0.0112915	-0.0357056
-0.0164795	-0.0335693
-0.00427246	-0.0314331
0.0152588	-0.0289917
0.0271606	-0.0265503
0.0183105	-0.0253296
0.0177002	-0.0253296
0.0350952	-0.0259399
0.0509644	-0.0265503
0.0210571	-0.0262451
-0.0186157	-0.0259399
-0.0198364	-0.0262451
-0.00488281	-0.0274658
-0.00244141	-0.0286865
-0.0012207	-0.0274658
-0.0119019	-0.0244141
-0.0177002	-0.0210571
-0.00305176	-0.0195313
0.0088501	-0.0192261
0.0100708	-0.0204468
-0.0228882	-0.0228882
-0.0320435	-0.0268555
-0.0265503	-0.0314331
-0.0228882	-0.0350952
-0.00915527	-0.0369263
-0.0198364	-0.0372314
-0.0125122	-0.0366211
0.0149536	-0.0354004
0.010376	-0.0332642
0.00671387	-0.0296021
-0.0100708	-0.0247192
-0.0140381	-0.0192261
0.0106812	-0.0152588
0.0088501	-0.0143433
0.015564	-0.0161743
0.0146484	-0.0189209
0.0177002	-0.0219727
0.057373	-0.0244141
0.043335	-0.0259399
0.0167847	-0.0268555
-0.0238037	-0.0283813
-0.0698853	-0.0283813
-0.0473022	-0.0274658
-0.0405884	-0.0265503
-0.022583	-0.0259399
0.0149536	-0.0253296
0.0216675	-0.0247192
0.055542	-0.0253296
0.0582886	-0.0253296
0.0292969	-0.0244141
0.00579834	-0.022583
-0.0408936	-0.0204468
-0.0534058	-0.0186157
-0.0366211	-0.0180054
-0.0286865	-0.017395
-0.00640869	-0.0167847
0.00793457	-0.0164795
0.0317383	-0.0158691
0.0460815	-0.0152588
0.0335693	-0.0140381
0.0201416	-0.0128174
0.00427246	-0.0106812
-0.0088501	-0.00762939
-0.0100708	-0.00366211
-0.0204468	0.0012207
-0.027771	0.00762939
-0.0375366	0.0149536
-0.0506592	0.022583
-0.0332642	0.0286865
-0.00366211	0.032959
0.0210571	0.0369263
0.027771	0.0415039
0.0140381	0.0466919
0.0109863	0.0512695
0.0131226	0.0549316
-0.00579834	0.0585938
-0.0167847	0.062561
-0.0131226	0.0656128
0.0198364	0.0671387
0.0643921	0.0692749
0.0463867	0.0720215
0.0204468	0.0735474
-0.00762939	0.0735474
-0.0170898	0.0726318
-0.0180054	0.0701904
-0.0531006	0.067749
-0.0521851	0.0656128
-0.0299072	0.0628662
0.00854492	0.0601196
0.0283813	0.057373
0.00701904	0.0552368
-0.00305176	0.0524902
-0.0109863	0.0476074
-0.015564	0.0411987
-0.0167847	0.0354004
-0.0088501	0.0296021
0.015564	0.0234985
0.0439453	0.0180054
0.0613403	0.0128174
0.065918	0.00854492
0.0393677	0.00488281
0.0241089	0.000305176
-0.000305176	-0.00610352
-0.0146484	-0.0125122
-0.0302124	-0.0164795
-0.0390625	-0.0183105
-0.0338745	-0.0204468
-0.00427246	-0.0231934
0.0189209	-0.027771
0.0219727	-0.0332642
0.00183105	-0.0393677
-0.0469971	-0.0439453
-0.0750732	-0.0482178
-0.0848389	-0.0515747
-0.0698853	-0.0540161
-0.050354	-0.055542
-0.010376	-0.0564575
0.0457764	-0.0570679
0.0842285	-0.0585938
0.0912476	-0.0598145
0.065918	-0.0601196
0.0418091	-0.0592041
0.015564	-0.0582886
-0.0292969	-0.0570679
-0.0482178	-0.0561523
-0.0585938	-0.0564575
-0.0402832	-0.0579834
-0.0317383	-0.0595093
-0.0213623	-0.0598145
-0.0125122	-0.0604248
0.0143433	-0.0628662
0.0482178	-0.0680542
0.0582886	-0.0769043
0.0595093	-0.0891113
0.0439453	-0.103455
0.0363159	-0.116272
0.00701904	-0.126038
-0.0131226	-0.129395
-0.045166	-0.122375
-0.0518799	-0.100098
-0.0332642	-0.0598145
-0.00976563	0.00152588
0.00671387	0.0820923
0.0167847	0.180054
0.0292969	0.294189
0.0628662	0.423584
0.0384521	0.56427
0.0112915	0.710144
-0.0338745	0.850525
-0.0619507	0.974121
-0.0549316	1.073
-0.0421143	1.13892
-0.0323486	1.16638
-0.0164795	1.15204
-0.017395	1.09467
0.00946045	0.995789
0.0375366	0.85907
0.0579834	0.692139
0.0662231	0.505371
0.0222778	0.31311
-0.0421143	0.130615
-0.129395	-0.0296021
-0.276184	-0.159912
-0.324707	-0.257263
-0.163574	-0.321655
0.145874	-0.353699
0.542908	-0.35553
0.784607	-0.332031
0.661621	-0.291748
0.264587	-0.244446
-0.158691	-0.198669
-0.498962	-0.158691
-0.704651	-0.126343
-0.69519	-0.101929
-0.527039	-0.0848389
-0.290527	-0.0747681
-0.0921631	-0.0701904
0.126343	-0.0689697
0.342102	-0.0701904
0.4245	-0.0735474
0.498657	-0.0772095
0.613098	-0.0790405
0.62439	-0.0799561
0.443726	-0.0802612
0.0653076	-0.0796509
-0.38208	-0.0784302
-0.706177	-0.0775146
-0.838928	-0.0762939
-0.762939	-0.0750732
-0.460815	-0.0744629
-0.12085	-0.0735474
0.122681	-0.0723267
0.362854	-0.0720215
0.504456	-0.072937
0.542297	-0.0732422
0.513611	-0.0723267
0.383301	-0.0708008
0.193176	-0.0683594
-0.0268555	-0.0662231
-0.213318	-0.0656128
-0.299683	-0.0665283
-0.293579	-0.0671387
-0.264587	-0.0662231
-0.222168	-0.0653076
-0.145569	-0.0656128
-0.0558472	-0.067749
0.062561	-0.0701904
0.140991	-0.0714111
0.151672	-0.0717163
0.128174	-0.0717163
0.0762939	-0.0704956
0.0259399	-0.0674438
-0.0308228	-0.0631714
-0.0756836	-0.0582886
-0.0915527	-0.0531006
-0.0854492	-0.0473022
-0.0643921	-0.0415039
-0.0595093	-0.0357056
-0.0158691	-0.0314331
0.0683594	-0.0280762
0.117493	-0.0259399
0.142212	-0.0262451
0.0970459	-0.0280762
0.0140381	-0.0296021
-0.0616455	-0.0299072
-0.0772095	-0.0302124
-0.0393677	-0.0308228
-0.0296021	-0.0311279
-0.039978	-0.0317383
-0.050354	-0.0308228
-0.0445557	-0.0280762
-0.0106812	-0.0234985
0.0241089	-0.0189209
0.0604248	-0.0152588
0.0881958	-0.0119019
0.0982666	-0.00823975
0.0991821	-0.00366211
0.0558472	0.00183105
0.00457764	0.00640869
-0.03479	0.00976563
-0.0540161	0.0128174
-0.0396729	0.0167847
-0.0350952	0.0216675
-0.0354004	0.027771
-0.0488281	0.0344849
-0.0585938	0.039978
-0.0317383	0.0442505
-0.0146484	0.0491333
0.000915527	0.0546265
0.0192261	0.0616455
0.0167847	0.0692749
0.03479	0.0765991
0.0616455	0.0814819
0.0265503	0.0845337
-0.0149536	0.0875854
-0.0421143	0.0909424
-0.0222778	0.0946045
-0.00274658	0.0991821
-0.0161743	0.10437
-0.0268555	0.108643
-0.0180054	0.112
0.00579834	0.115662
0.0106812	0.120239
0.00671387	0.124817
-0.0128174	0.128479
-0.010376	0.131836
0.0296021	0.135803
0.0460815	0.13916
0.0521851	0.139465
0.0405884	0.137634
0.0149536	0.134888
0.00640869	0.133362
-0.0454712	0.133057
-0.0830078	0.132751
-0.067749	0.131836
-0.0296021	0.129395
0.015564	0.126648
0.0164795	0.125122
0.0210571	0.125427
0.0482178	0.124817
0.0540161	0.121155
0.0448608	0.114746
0.0241089	0.106812
0.010376	0.0976563
-0.0134277	0.0875854
-0.055542	0.0759888
-0.0631714	0.0628662
-0.0436401	0.0494385
-0.0244141	0.0363159
-0.0109863	0.0247192
0.00671387	0.0152588
0.0454712	0.00701904
0.0289917	-0.000915527
0.0192261	-0.00823975
0.0262451	-0.0164795
-0.00457764	-0.0259399
-0.0338745	-0.0369263
-0.0344849	-0.0485229
-0.0274658	-0.0601196
-0.0134277	-0.0708008
-0.00610352	-0.0808716
0.0131226	-0.090332
0.0164795	-0.0973511
-0.00244141	-0.101318
-0.00701904	-0.101318
-0.0106812	-0.0997925
-0.00396729	-0.0982666
0.0189209	-0.0964355
0.0338745	-0.09552
0.0341797	-0.0961304
0.0262451	-0.0973511
0.0204468	-0.0991821
0.0177002	-0.100708
-0.00823975	-0.102844
-0.0518799	-0.104675
-0.0820923	-0.105896
-0.119629	-0.105286
-0.105896	-0.103455
-0.0238037	-0.100403
0.246887	-0.0982666
0.430908	-0.0979614
0.288696	-0.0982666
0.0527954	-0.0991821
-0.255127	-0.100403
-0.522156	-0.101929
-0.518188	-0.103149
-0.279846	-0.104065
0.0305176	-0.105591
0.255432	-0.107422
0.328674	-0.108337
0.301208	-0.108337
0.203247	-0.107422
0.0869751	-0.10498
0.012207	-0.101929
-0.0360107	-0.0997925
-0.0537109	-0.0985718
-0.0476074	-0.0982666
-0.0439453	-0.0976563
-0.0515747	-0.0964355
-0.0900269	-0.0939941
-0.1297	-0.0906372
-0.128479	-0.0875854
-0.100708	-0.085144
-0.0457764	-0.083313
0.0305176	-0.0830078
0.108032	-0.0848389
0.167847	-0.0869751
0.186462	-0.0878906
0.160828	-0.0878906
0.0881958	-0.0872803
-0.012207	-0.0863647
-0.102539	-0.0857544
-0.157166	-0.0857544
-0.173645	-0.085144
-0.158691	-0.0839233
-0.110779	-0.0814819
-0.032959	-0.0784302
0.0506592	-0.0769043
0.111694	-0.0769043
0.143433	-0.0784302
0.138245	-0.0811768
0.0994873	-0.0845337
0.0506592	-0.0869751
-0.00762939	-0.088501
-0.0686646	-0.0888062
-0.108337	-0.0878906
-0.11322	-0.0848389
-0.0872803	-0.0817871
-0.0473022	-0.0787354
0.00854492	-0.0762939
0.0585938	-0.0741577
0.0878906	-0.0714111
0.102844	-0.0686646
0.0866699	-0.0668335
0.0375366	-0.0665283
-0.0308228	-0.0665283
-0.0970459	-0.067749
-0.135193	-0.0698853
-0.13092	-0.0701904
-0.0900269	-0.0695801
-0.0183105	-0.0680542
0.0592041	-0.0665283
0.120239	-0.0656128
0.145264	-0.0650024
0.134583	-0.0640869
0.0912476	-0.062561
0.0354004	-0.0610352
-0.0344849	-0.0610352
-0.0799561	-0.0622559
-0.113831	-0.0640869
-0.0991821	-0.0646973
-0.0668335	-0.065918
-0.0253296	-0.0689697
0.0286865	-0.072937
0.0405884	-0.0756836
0.0482178	-0.078125
0.0430298	-0.0793457
0.0106812	-0.0790405
-0.0152588	-0.0769043
-0.0192261	-0.0738525
-0.0228882	-0.0701904
-0.0213623	-0.0671387
0.0125122	-0.0646973
0.0140381	-0.0634766
0.015564	-0.0637817
0.0100708	-0.0650024
0.00610352	-0.065918
-0.00396729	-0.0662231
-0.017395	-0.0665283
-0.0241089	-0.0668335
-0.0271606	-0.0668335
-0.0274658	-0.0662231
-0.0256348	-0.0643921
-0.00671387	-0.0613403
0.0137329	-0.0570679
0.0408936	-0.0518799
0.0506592	-0.0473022
0.0576782	-0.0442505
0.0326538	-0.0439453
0.0198364	-0.0469971
-0.0152588	-0.0515747
-0.0579834	-0.0561523
-0.0628662	-0.0598145
-0.0476074	-0.0634766
-0.0152588	-0.0671387
0.00915527	-0.071106
0.0363159	-0.0744629
0.0439453	-0.0759888
0.03479	-0.0750732
0.0143433	-0.0720215
-0.010376	-0.067749
-0.0280762	-0.0631714
-0.0283813	-0.0579834
-0.022583	-0.0531006
-0.00518799	-0.0488281
0.0100708	-0.0466919
0.0262451	-0.0457764
0.0378418	-0.045166
0.0408936	-0.045166
0.0311279	-0.0463867
0.000610352	-0.0482178
-0.0201416	-0.0506592
-0.038147	-0.0534058
-0.0482178	-0.0567627
-0.0570679	-0.0595093
-0.0601196	-0.0613403
-0.0372314	-0.0622559
-0.00610352	-0.0628662
0.0366211	-0.0628662
0.067749	-0.0619507
0.071106	-0.0598145
0.0585938	-0.0579834
0.0305176	-0.0561523
0.00549316	-0.0546265
-0.0247192	-0.0521851
-0.0469971	-0.0485229
-0.0772095	-0.0454712
-0.0653076	-0.0442505
-0.0366211	-0.0454712
-0.0204468	-0.0488281
0.0146484	-0.0521851
0.0204468	-0.0549316
0.0326538	-0.0576782
0.0244141	-0.0601196
0.0119019	-0.06073
0.00396729	-0.0604248
0.00762939	-0.0598145
0.0357056	-0.0585938
0.0592041	-0.0567627
0.0372314	-0.0552368
-0.00396729	-0.0527954
-0.0302124	-0.0500488
-0.0222778	-0.0479126
-0.0335693	-0.0473022
-0.0222778	-0.0469971
0.00640869	-0.0469971
0.0183105	-0.0463867
0.012207	-0.0445557
0.00488281	-0.0424194
0.0109863	-0.039978
-0.00946045	-0.0372314
-0.0372314	-0.0350952
-0.0112915	-0.0357056
-0.0134277	-0.0390625
-0.00793457	-0.0427246
0.0109863	-0.0460815
0.00274658	-0.0497437
0.0158691	-0.0534058
0.00671387	-0.0570679
-0.00518799	-0.0601196
-0.0128174	-0.06073
-0.0302124	-0.0588989
-0.0149536	-0.0546265
0.00701904	-0.0491333
0.0180054	-0.0430298
0.0338745	-0.0375366
0.0411987	-0.0323486
0.0186157	-0.0271606
0.00610352	-0.0219727
-0.0137329	-0.0158691
-0.0360107	-0.00854492
-0.0802612	-0.000610352
-0.0692749	0.00671387
-0.0378418	0.0140381
-0.0128174	0.0216675
0.0241089	0.0268555
0.0720215	0.0296021
0.11261	0.0314331
0.0982666	0.032959
0.0891113	0.0335693
0.0259399	0.0335693
-0.0180054	0.0317383
-0.0561523	0.0296021
-0.0848389	0.0296021
-0.0854492	0.032959
-0.114441	0.0393677
-0.0991821	0.0460815
-0.0518799	0.0515747
-0.00671387	0.0558472
0.0509644	0.0601196
0.0946045	0.0643921
0.101013	0.0668335
0.109253	0.0668335
0.0823975	0.0640869
0.0402832	0.0585938
-0.00732422	0.0512695
-0.0411987	0.043335
-0.0582886	0.0354004
-0.0683594	0.0268555
-0.0744629	0.0177002
-0.0631714	0.00854492
-0.0537109	0.000915527
-0.0372314	-0.00610352
-0.0088501	-0.012207
0.0238037	-0.0183105
0.055542	-0.022583
0.0726318	-0.0247192
0.0857544	-0.0259399
0.083313	-0.027771
0.0601196	-0.0308228
0.0250244	-0.0341797
-0.0189209	-0.0375366
-0.0482178	-0.0408936
-0.0653076	-0.0436401
-0.0671387	-0.0457764
-0.0634766	-0.0485229
-0.0473022	-0.0521851
-0.0170898	-0.0567627
0.00671387	-0.0616455
0.00366211	-0.065918
-0.00305176	-0.0698853
-0.00366211	-0.0738525
0.00549316	-0.0772095
0.0292969	-0.0793457
0.043335	-0.0805664
0.0354004	-0.0811768
0.0201416	-0.0805664
0.0189209	-0.0787354
0.0109863	-0.0765991
-0.012207	-0.0735474
-0.0531006	-0.0683594
-0.0643921	-0.0634766
-0.0500488	-0.06073
-0.0335693	-0.06073
0.0100708	-0.0643921
0.0653076	-0.0717163
0.0759888	-0.0817871
0.093689	-0.0927734
0.0842285	-0.104065
0.0378418	-0.114441
-0.017395	-0.121155
-0.0518799	-0.120239
-0.0640869	-0.107117
-0.0698853	-0.078125
-0.0561523	-0.0305176
-0.0500488	0.0366211
-0.0375366	0.121765
-0.00946045	0.223999
0.0286865	0.343323
0.0692749	0.478821
0.0726318	0.62439
0.0616455	0.766602
0.0366211	0.89325
-0.00335693	0.99823
-0.0418091	1.07513
-0.0796509	1.11694
-0.0704956	1.11755
-0.0546265	1.0733
-0.0289917	0.984192
0.00518799	0.856018
0.0192261	0.698242
0.0482178	0.52124
0.0460815	0.337524
0.0268555	0.161133
0.0012207	0.00396729
-0.0506592	-0.126343
-0.212097	-0.22583
-0.32074	-0.293579
-0.193176	-0.330505
0.0756836	-0.33905
0.431519	-0.323486
0.693359	-0.290527
0.638733	-0.248108
0.363159	-0.204163
0.0369263	-0.164795
-0.253296	-0.131226
-0.484619	-0.10437
-0.595398	-0.0845337
-0.546875	-0.0726318
-0.429382	-0.0668335
-0.31189	-0.065918
-0.205383	-0.0674438
-0.0506592	-0.0714111
0.152893	-0.0769043
0.312805	-0.0823975
0.516052	-0.0854492
0.74585	-0.0854492
0.831604	-0.0836182
0.656738	-0.0799561
0.243225	-0.0738525
-0.287476	-0.0665283
-0.72998	-0.0604248
-0.943298	-0.0549316
-0.921936	-0.0497437
-0.682373	-0.0454712
-0.316162	-0.0408936
0.0643921	-0.0366211
0.370483	-0.0332642
0.545044	-0.0323486
0.604858	-0.0332642
0.571594	-0.03479
0.43457	-0.0363159
0.246277	-0.038147
0.03479	-0.039978
-0.155334	-0.0411987
-0.276794	-0.0415039
-0.31311	-0.0421143
-0.283813	-0.0421143
-0.204163	-0.0396729
-0.110168	-0.0350952
-0.012207	-0.0292969
0.0415039	-0.0247192
0.0820923	-0.0216675
0.0872803	-0.0192261
0.0872803	-0.0164795
0.0680542	-0.0149536
0.0485229	-0.0161743
0.00610352	-0.0186157
-0.0183105	-0.0210571
-0.057373	-0.0219727
-0.0726318	-0.0210571
-0.0842285	-0.0192261
-0.0585938	-0.0170898
-0.0149536	-0.0149536
0.0335693	-0.0128174
0.06073	-0.0100708
0.0695801	-0.00640869
0.0549316	-0.00213623
0.06073	0.00244141
0.0662231	0.00671387
0.0457764	0.00976563
-0.00488281	0.0131226
-0.0619507	0.017395
-0.115967	0.0238037
-0.145264	0.0302124
-0.146179	0.0341797
-0.146484	0.0363159
-0.193481	0.0378418
0.270691	0.0402832
0.421448	0.0427246
0.172424	0.0442505
0.0671387	0.0439453
-0.0857544	0.0421143
-0.141907	0.0411987
-0.0930786	0.0421143
-0.0637817	0.0436401
-0.0692749	0.0454712
-0.0515747	0.0476074
0.0463867	0.0509644
0.0997925	0.0561523
0.121765	0.0634766
0.0927734	0.0717163
0.0183105	0.0811768
-0.0628662	0.0915527
-0.117798	0.101624
-0.12085	0.109558
-0.072937	0.115662
-0.0268555	0.12085
0.0140381	0.125427
0.0360107	0.129089
0.0549316	0.131836
0.0588989	0.133057
0.0515747	0.134583
0.0308228	0.136719
0.0131226	0.13916
-0.00488281	0.141907
-0.0125122	0.145569
-0.0268555	0.149536
-0.0213623	0.153503
-0.00762939	0.15686
0.0128174	0.159302
0.0320435	0.161743
0.0311279	0.164795
0.017395	0.167847
-0.00244141	0.170898
-0.0216675	0.174866
-0.0378418	0.179749
-0.0436401	0.1828
-0.0265503	0.183716
-0.00183105	0.183716
0.00274658	0.18158
-0.0128174	0.176392
-0.0357056	0.168457
-0.0424194	0.159607
-0.0360107	0.150452
-0.0320435	0.141907
0.00427246	0.133667
0.0296021	0.126038
0.045166	0.119629
0.072937	0.112305
0.0726318	0.102539
0.0631714	0.0912476
0.0476074	0.0793457
0.0158691	0.067749
-0.0131226	0.0552368
-0.0476074	0.0424194
-0.0756836	0.0286865
-0.0692749	0.0149536
-0.0524902	0.00244141
-0.0250244	-0.00762939
0.00976563	-0.015564
0.03479	-0.0219727
0.0552368	-0.0274658
0.0540161	-0.0320435
0.03479	-0.0357056
0.0177002	-0.0387573
0.00213623	-0.0418091
-0.0189209	-0.045166
-0.0274658	-0.0479126
-0.0274658	-0.0494385
-0.0189209	-0.0491333
-0.010376	-0.0476074
-0.0265503	-0.045166
-0.0427246	-0.0430298
-0.0460815	-0.0424194
-0.0289917	-0.043335
-0.0338745	-0.0448608
-0.0918579	-0.0473022
-0.0366211	-0.0506592
0.298462	-0.0534058
0.52063	-0.0552368
0.338745	-0.0567627
0.0411987	-0.0588989
-0.28595	-0.0610352
-0.546875	-0.0622559
-0.587158	-0.0613403
-0.409851	-0.0585938
-0.151367	-0.0558472
0.0717163	-0.0546265
0.237427	-0.0540161
0.358276	-0.0531006
0.430908	-0.0512695
0.381775	-0.0482178
0.267944	-0.0454712
0.159607	-0.0436401
0.0527954	-0.0421143
-0.0662231	-0.0415039
-0.190735	-0.0427246
-0.308838	-0.0460815
-0.388489	-0.050354
-0.371094	-0.0549316
-0.27832	-0.0595093
-0.109253	-0.0637817
0.0650024	-0.0665283
0.223389	-0.0674438
0.326233	-0.0665283
0.350037	-0.0643921
0.302734	-0.0604248
0.178833	-0.0543213
0.0335693	-0.0473022
-0.127869	-0.0396729
-0.231934	-0.0332642
-0.270081	-0.0292969
-0.238953	-0.0280762
-0.161438	-0.027771
-0.057373	-0.0286865
0.0497437	-0.0292969
0.124512	-0.0299072
0.169373	-0.0305176
0.152893	-0.0308228
0.111694	-0.0308228
0.0308228	-0.0302124
-0.0372314	-0.0292969
-0.0845337	-0.0274658
-0.0927734	-0.0247192
-0.0759888	-0.0222778
-0.0463867	-0.0204468
-0.00549316	-0.020752
0.0259399	-0.0222778
0.0518799	-0.0234985
0.0408936	-0.0253296
0.0354004	-0.027771
0.017395	-0.0308228
0.00274658	-0.0338745
0.00366211	-0.0360107
-0.0088501	-0.0372314
-0.00915527	-0.0378418
-0.00915527	-0.0369263
-0.00762939	-0.0341797
-0.0167847	-0.0305176
-0.0222778	-0.0256348
-0.0137329	-0.0213623
-0.00549316	-0.0183105
0.00915527	-0.0170898
0.0366211	-0.0177002
0.050354	-0.0195313
0.0308228	-0.0219727
0.00549316	-0.0244141
-0.0183105	-0.0268555
-0.027771	-0.0289917
-0.0234985	-0.0311279
-0.0158691	-0.0335693
-0.00579834	-0.0354004
0.00183105	-0.0357056
0.00152588	-0.0341797
-0.0146484	-0.0305176
-0.00671387	-0.0271606
0.00671387	-0.0256348
0.0100708	-0.0253296
0.00610352	-0.0259399
-0.0128174	-0.0280762
-0.0302124	-0.0314331
-0.0341797	-0.03479
-0.0271606	-0.0375366
-0.0280762	-0.0390625
-0.0213623	-0.039978
-0.00640869	-0.0393677
0.0201416	-0.0378418
0.0445557	-0.0350952
0.0598145	-0.0308228
0.050354	-0.0256348
0.039978	-0.0201416
0.0250244	-0.0167847
-0.0131226	-0.0167847
-0.0341797	-0.0192261
-0.0369263	-0.022583
-0.0311279	-0.0265503
-0.00854492	-0.0302124
0.0119019	-0.0335693
0.00762939	-0.0357056
0.00854492	-0.0360107
0.0100708	-0.03479
0.0137329	-0.0323486
0.0183105	-0.0286865
0.017395	-0.0244141
0.0183105	-0.0201416
0.0170898	-0.0161743
0.00152588	-0.0131226
-0.0177002	-0.0115967
-0.0326538	-0.0125122
-0.0436401	-0.0143433
-0.0515747	-0.0170898
-0.0350952	-0.0198364
-0.017395	-0.0219727
0.00854492	-0.0222778
0.0271606	-0.0222778
0.0384521	-0.0231934
0.0479126	-0.0250244
0.0543213	-0.027771
0.0390625	-0.0302124
0.0100708	-0.032959
-0.0256348	-0.0366211
-0.0558472	-0.0411987
-0.0762939	-0.045166
-0.0857544	-0.0485229
-0.0744629	-0.0512695
-0.0421143	-0.0524902
0.012207	-0.0515747
0.0665283	-0.0482178
0.0964355	-0.0421143
0.10437	-0.0332642
0.0958252	-0.0244141
0.06073	-0.0177002
0.00488281	-0.0131226
-0.0448608	-0.010376
-0.0866699	-0.0088501
-0.0982666	-0.00915527
-0.0881958	-0.0112915
-0.0698853	-0.0149536
-0.0500488	-0.0192261
-0.0183105	-0.0234985
0.0228882	-0.0268555
0.0576782	-0.0286865
0.0836182	-0.0286865
0.090332	-0.0274658
0.0765991	-0.0262451
0.0546265	-0.0244141
0.0189209	-0.0231934
-0.0177002	-0.022583
-0.0491333	-0.0213623
-0.0646973	-0.0186157
-0.0619507	-0.0149536
-0.0454712	-0.00976563
-0.0259399	-0.00457764
0.00793457	0
0.0308228	0.00366211
0.0292969	0.00640869
0.0210571	0.00732422
0.0180054	0.00518799
0.0231934	0.000915527
0.0128174	-0.00457764
0.00640869	-0.0106812
0.0186157	-0.0177002
0.0320435	-0.0241089
0.0219727	-0.0280762
-0.0231934	-0.0280762
-0.0509644	-0.0244141
-0.0552368	-0.0183105
-0.0396729	-0.0100708
-0.0286865	-0.000305176
-0.0289917	0.010376
-0.0274658	0.0210571
-0.0128174	0.0299072
-0.00610352	0.0372314
-0.012207	0.0436401
0.00793457	0.0497437
0.0393677	0.0552368
0.0549316	0.0598145
0.045166	0.0631714
0.0378418	0.0656128
0.0442505	0.0674438
0.0436401	0.0680542
0.0115967	0.0674438
-0.0265503	0.0662231
-0.0430298	0.0646973
-0.0582886	0.0619507
-0.0750732	0.0582886
-0.0634766	0.0543213
-0.017395	0.0509644
0.0314331	0.0485229
0.0402832	0.0457764
0.0424194	0.0427246
0.0497437	0.0393677
0.0473022	0.0360107
0.0128174	0.032959
-0.0286865	0.0296021
-0.0476074	0.0250244
-0.0384521	0.0204468
-0.0216675	0.0146484
0.00244141	0.00793457
0.0363159	0.000915527
0.0622559	-0.00579834
0.0610352	-0.0115967
0.0192261	-0.017395
-0.0311279	-0.0241089
-0.0549316	-0.0305176
-0.0543213	-0.0366211
-0.0424194	-0.043335
-0.0180054	-0.050354
0.0012207	-0.057373
0.012207	-0.0631714
0.0241089	-0.0674438
0.0219727	-0.0708008
0.0112915	-0.072937
0.00244141	-0.0726318
-0.00488281	-0.0698853
-0.0198364	-0.0653076
-0.0476074	-0.0604248
-0.0524902	-0.0552368
-0.0445557	-0.0518799
-0.0192261	-0.050354
0.0204468	-0.0506592
0.0564575	-0.0527954
0.0805664	-0.0561523
0.0775146	-0.0610352
0.0411987	-0.0671387
0.00488281	-0.0732422
-0.0140381	-0.0775146
-0.0131226	-0.0802612
-0.0192261	-0.083313
-0.0320435	-0.0875854
-0.03479	-0.0942993
-0.0152588	-0.103149
0.00732422	-0.114136
0.0219727	-0.124817
0.0296021	-0.132751
0.0231934	-0.133667
0.0149536	-0.123901
0.00183105	-0.098877
-0.0195313	-0.0546265
-0.0445557	0.0106812
-0.0457764	0.0964355
-0.0350952	0.200806
-0.0170898	0.32074
0.000915527	0.455627
0.0128174	0.601196
0.0183105	0.743713
0.0241089	0.869141
0.039978	0.969238
0.0442505	1.04126
0.0286865	1.08002
-0.000305176	1.0788
-0.0283813	1.0379
-0.0430298	0.960083
-0.057373	0.846863
-0.0448608	0.702515
-0.00946045	0.536499
0.0170898	0.360718
0.0247192	0.187683
0.0234985	0.0289917
0.0161743	-0.107422
0.0112915	-0.217896
0.00823975	-0.300293
-0.0106812	-0.353699
-0.130005	-0.379333
-0.331421	-0.381775
-0.37323	-0.365601
-0.215454	-0.335693
0.083313	-0.297852
0.349121	-0.258484
0.767517	-0.220337
1.03119	-0.186768
0.539246	-0.159607
0.134277	-0.13855
-0.137024	-0.12207
-0.394592	-0.109253
-0.506592	-0.098877
-0.573425	-0.090332
-0.609741	-0.0836182
-0.594177	-0.0784302
-0.544434	-0.0759888
-0.412292	-0.0759888
-0.206909	-0.0762939
0.0860596	-0.0769043
0.474548	-0.0772095
0.84259	-0.0778198
1.03607	-0.0790405
0.987549	-0.0793457
0.719299	-0.0787354
0.296936	-0.0775146
-0.206299	-0.0772095
-0.67627	-0.0759888
-0.956726	-0.0744629
-1.00159	-0.0723267
-0.819092	-0.0689697
-0.489197	-0.0656128
-0.0570679	-0.0622559
0.400085	-0.0598145
0.709534	-0.0585938
0.786438	-0.0579834
0.682068	-0.0558472
0.469971	-0.0527954
0.19043	-0.0497437
-0.100708	-0.0482178
-0.354614	-0.0479126
-0.500183	-0.0479126
-0.505066	-0.0473022
-0.420532	-0.0457764
-0.284119	-0.0445557
-0.0949097	-0.0439453
0.0827026	-0.0445557
0.233765	-0.0463867
0.296326	-0.0482178
0.287476	-0.0482178
0.259399	-0.0473022
0.165405	-0.0466919
0.012207	-0.0463867
-0.0946045	-0.045166
-0.146179	-0.0436401
-0.140076	-0.0408936
-0.123596	-0.0375366
-0.0765991	-0.0341797
0.00671387	-0.0308228
0.065918	-0.0268555
0.0561523	-0.0234985
0.0582886	-0.0231934
0.0637817	-0.0256348
0.038147	-0.0280762
-0.00305176	-0.0292969
-0.0247192	-0.0299072
-0.0390625	-0.0302124
-0.0695801	-0.0299072
-0.102234	-0.0283813
-0.0747681	-0.0259399
-0.0192261	-0.0228882
0.00579834	-0.0186157
0.0146484	-0.0131226
0.0469971	-0.00732422
0.0497437	-0.00183105
-0.000610352	0.00427246
-0.0244141	0.0109863
-0.00183105	0.0180054
-0.00610352	0.0241089
-0.0302124	0.0286865
-0.00671387	0.0311279
0.0308228	0.0332642
0.0253296	0.0366211
0.012207	0.0396729
0.0515747	0.0411987
0.0741577	0.043335
0.0369263	0.0473022
-0.0115967	0.0527954
-0.0338745	0.0579834
-0.0378418	0.0640869
-0.0512695	0.0701904
-0.0357056	0.0756836
0.0152588	0.0796509
0.0119019	0.0827026
-0.0149536	0.0845337
0.0112915	0.0857544
0.0460815	0.0860596
0.0280762	0.085144
0.0146484	0.0839233
0.0463867	0.0836182
0.0534058	0.0857544
0.00518799	0.0900269
-0.027771	0.0946045
-0.043335	0.0985718
-0.0842285	0.101624
-0.126648	0.105286
-0.090332	0.108948
-0.010376	0.11322
0.0262451	0.115967
0.045166	0.116272
0.088501	0.115051
0.121155	0.114441
0.0906372	0.114746
0.0354004	0.115967
0.0131226	0.115662
-0.0161743	0.112915
-0.0866699	0.107117
-0.125122	0.0997925
-0.102234	0.0918579
-0.067749	0.0839233
-0.0323486	0.0756836
0.0128174	0.067749
0.0732422	0.0613403
0.102844	0.0558472
0.0976563	0.0506592
0.0683594	0.0439453
0.0253296	0.0354004
-0.0201416	0.0256348
-0.0497437	0.015564
-0.0906372	0.00549316
-0.107422	-0.00396729
-0.0756836	-0.0131226
-0.0231934	-0.0228882
0.0134277	-0.032959
0.0280762	-0.0421143
0.0473022	-0.0482178
0.0784302	-0.0512695
0.0564575	-0.0509644
-0.0158691	-0.0488281
-0.0610352	-0.0473022
-0.0723267	-0.0463867
-0.125122	-0.0457764
0.0250244	-0.0469971
0.428772	-0.0509644
0.534973	-0.055542
0.247803	-0.0598145
-0.0549316	-0.0631714
-0.362854	-0.0653076
-0.606079	-0.0674438
-0.619812	-0.0689697
-0.43396	-0.0695801
-0.187988	-0.0704956
0.0408936	-0.0714111
0.269775	-0.071106
0.492249	-0.0695801
0.597839	-0.067749
0.550842	-0.0665283
0.368958	-0.0674438
0.155334	-0.0689697
-0.0524902	-0.0708008
-0.273438	-0.0720215
-0.439148	-0.0717163
-0.517273	-0.0704956
-0.458069	-0.0689697
-0.302734	-0.067749
-0.202942	-0.0668335
0.017395	-0.0656128
0.333252	-0.0650024
0.515442	-0.0653076
0.498047	-0.065918
0.349731	-0.0665283
0.114746	-0.0671387
-0.0878906	-0.0680542
-0.218811	-0.0689697
-0.273743	-0.067749
-0.295105	-0.0640869
-0.275879	-0.0588989
-0.147705	-0.0543213
0.012207	-0.0512695
0.169373	-0.0494385
0.21698	-0.0479126
0.1651	-0.0466919
0.0888062	-0.0460815
0.0192261	-0.0466919
0.000305176	-0.0491333
-0.0415039	-0.0527954
-0.0762939	-0.0564575
-0.0646973	-0.0585938
-0.0442505	-0.0582886
-0.0088501	-0.0552368
-0.0302124	-0.0506592
-0.0439453	-0.0469971
-0.0241089	-0.0442505
0.0125122	-0.0424194
0.0354004	-0.0418091
0.0326538	-0.0418091
0.0592041	-0.0424194
0.0814819	-0.0418091
0.0842285	-0.0418091
0.0354004	-0.0436401
0.00640869	-0.0466919
-0.0299072	-0.0497437
-0.0549316	-0.0521851
-0.0756836	-0.0531006
-0.0793457	-0.0521851
-0.038147	-0.0515747
-0.00793457	-0.0515747
-0.00610352	-0.0531006
-0.0247192	-0.055542
-0.0164795	-0.0582886
0.0244141	-0.0601196
0.0234985	-0.0610352
0.00152588	-0.0601196
-0.0112915	-0.0579834
0.022583	-0.0546265
0.0518799	-0.0500488
0.0283813	-0.0454712
0.0125122	-0.0405884
0.0338745	-0.0354004
0.0836182	-0.0302124
0.0509644	-0.0271606
-0.00549316	-0.0274658
-0.0488281	-0.0308228
-0.0244141	-0.0354004
-0.0210571	-0.0402832
-0.0466919	-0.0457764
-0.0723267	-0.0527954
-0.045166	-0.0598145
0.00854492	-0.0650024
0.0198364	-0.0665283
-0.00610352	-0.0634766
-0.0115967	-0.057373
0.0189209	-0.0515747
0.0180054	-0.0479126
-0.0128174	-0.0454712
-0.0418091	-0.0430298
-0.00213623	-0.0411987
0.038147	-0.0405884
0.0497437	-0.0418091
0.0595093	-0.0445557
0.0769043	-0.0476074
0.0762939	-0.050354
0.0524902	-0.0521851
-0.0338745	-0.0518799
-0.0958252	-0.050354
-0.129089	-0.0476074
-0.170593	-0.0439453
-0.149841	-0.0408936
-0.102234	-0.0402832
-0.0189209	-0.0405884
0.0683594	-0.0418091
0.105286	-0.043335
0.1297	-0.0457764
0.129089	-0.0488281
0.118103	-0.0518799
0.0686646	-0.0537109
0.0119019	-0.0546265
-0.0280762	-0.0540161
-0.0445557	-0.0521851
-0.0299072	-0.0479126
-0.0308228	-0.0415039
-0.0189209	-0.0354004
-0.00915527	-0.0317383
-0.00823975	-0.0311279
-0.0228882	-0.0314331
-0.0292969	-0.0323486
-0.0341797	-0.03479
-0.0268555	-0.0393677
-0.00213623	-0.0460815
-0.0106812	-0.0543213
-0.0140381	-0.062561
-0.0250244	-0.0683594
-0.010376	-0.0701904
0.00671387	-0.0680542
0.0219727	-0.0640869
0.0570679	-0.0595093
0.0674438	-0.055542
0.0695801	-0.0531006
0.0332642	-0.0512695
0.0180054	-0.0500488
0.0161743	-0.0482178
-0.0100708	-0.0473022
-0.0390625	-0.0469971
-0.0320435	-0.0473022
-0.0152588	-0.0469971
-0.0460815	-0.0439453
-0.0793457	-0.0384521
-0.0732422	-0.0314331
-0.0354004	-0.022583
-0.010376	-0.0125122
0.00152588	-0.00213623
0.0424194	0.00640869
0.0692749	0.012207
0.0579834	0.0152588
0.0283813	0.0177002
0.0204468	0.0192261
0.0146484	0.0198364
-0.00579834	0.0204468
-0.0238037	0.0219727
-0.0219727	0.0250244
0.00152588	0.0299072
0.0201416	0.0350952
-0.00335693	0.0408936
-0.0299072	0.0476074
-0.022583	0.0552368
-0.00213623	0.0631714
-0.00793457	0.0701904
-0.0268555	0.0756836
-0.0131226	0.0772095
0.0302124	0.0756836
0.0585938	0.0726318
0.0375366	0.0698853
0.00732422	0.0656128
-0.00762939	0.0598145
-0.0256348	0.0540161
-0.0488281	0.0482178
-0.078125	0.039978
-0.0698853	0.0299072
-0.0125122	0.0201416
0.0411987	0.0109863
0.0756836	0.00244141
0.067749	-0.00610352
0.043335	-0.0149536
0.00640869	-0.0238037
-0.0268555	-0.0314331
-0.0320435	-0.0375366
-0.0299072	-0.0415039
-0.000915527	-0.043335
0.0216675	-0.0430298
0.0454712	-0.0415039
0.0500488	-0.0387573
0.0378418	-0.0366211
0.0363159	-0.0363159
0.0131226	-0.038147
-0.00640869	-0.0424194
-0.0311279	-0.0479126
-0.0537109	-0.0537109
-0.090332	-0.0604248
-0.119324	-0.0674438
-0.0991821	-0.0741577
-0.0616455	-0.0799561
-0.0100708	-0.0839233
0.0418091	-0.0860596
0.090332	-0.0854492
0.116577	-0.0823975
0.0891113	-0.0772095
0.032959	-0.0714111
-0.0256348	-0.0662231
-0.0543213	-0.0631714
-0.0604248	-0.0622559
-0.0366211	-0.0619507
-0.00152588	-0.062561
0.0210571	-0.0656128
0.0366211	-0.0720215
0.0378418	-0.0823975
0.0341797	-0.0958252
0.0228882	-0.110779
0.00762939	-0.127258
-0.00579834	-0.142212
-0.00946045	-0.151367
-0.00152588	-0.151978
0.0149536	-0.139465
0.0320435	-0.109558
0.0289917	-0.06073
0.00640869	0.00762939
-0.0253296	0.0952148
-0.0283813	0.19989
-0.0262451	0.32196
-0.022583	0.460815
-0.0332642	0.610046
-0.039978	0.75592
-0.0186157	0.883179
-0.00244141	0.984802
0.00366211	1.05743
-0.0231934	1.09467
-0.0411987	1.09161
-0.0268555	1.04736
0.00976563	0.96283
0.0402832	0.840149
0.0439453	0.68573
0.0335693	0.510254
0.0369263	0.327454
0.0363159	0.150757
-0.00335693	-0.00946045
-0.050354	-0.144958
-0.0708008	-0.25116
-0.0466919	-0.325928
-0.158691	-0.368958
-0.314331	-0.384216
-0.290222	-0.376587
-0.0732422	-0.350647
0.355225	-0.312805
0.673828	-0.269165
0.696716	-0.226135
0.515747	-0.188599
0.274963	-0.159302
0.045166	-0.137939
-0.241699	-0.122986
-0.480347	-0.112915
-0.620422	-0.105896
-0.643005	-0.101929
-0.574646	-0.101013
-0.484619	-0.102539
-0.313721	-0.104675
-0.0326538	-0.106506
0.328369	-0.106506
0.678711	-0.10376
0.844421	-0.0985718
0.770569	-0.0927734
0.507507	-0.0875854
0.131836	-0.083313
-0.212097	-0.0787354
-0.489807	-0.0738525
-0.6604	-0.0698853
-0.644226	-0.0668335
-0.499573	-0.0668335
-0.21759	-0.0692749
0.0723267	-0.0723267
0.298462	-0.0747681
0.448914	-0.0772095
0.47821	-0.0787354
0.412598	-0.0796509
0.280151	-0.0784302
0.0869751	-0.0759888
-0.0906372	-0.0717163
-0.210876	-0.0665283
-0.26123	-0.0604248
-0.252075	-0.0543213
-0.209656	-0.0494385
-0.14679	-0.0466919
-0.0518799	-0.0448608
0.0488281	-0.0424194
0.104065	-0.039978
0.098877	-0.0390625
0.0784302	-0.039978
0.0494385	-0.0408936
0.0302124	-0.0418091
0.0131226	-0.0418091
-0.0192261	-0.0418091
-0.0259399	-0.0418091
0.000610352	-0.0411987
0.0250244	-0.0405884
0.0338745	-0.0402832
0.0125122	-0.0393677
-0.0143433	-0.0375366
-0.0231934	-0.0357056
-0.0228882	-0.0335693
-0.00976563	-0.0302124
-0.00823975	-0.0265503
-0.0283813	-0.0222778
-0.0418091	-0.0170898
-0.043335	-0.0112915
-0.0344849	-0.00640869
-0.0161743	-0.00183105
0.0100708	0.000915527
0.0247192	0.00183105
0.0296021	0.000915527
0.0274658	-0.000915527
0.0228882	-0.00396729
0.0106812	-0.00640869
0.0128174	-0.00823975
0.0088501	-0.0100708
0.0186157	-0.0115967
0.0369263	-0.0109863
0.0268555	-0.00793457
0	-0.00183105
-0.00457764	0.00640869
0.000915527	0.0161743
-0.00701904	0.0268555
-0.0411987	0.0360107
-0.0891113	0.0430298
-0.102539	0.0485229
-0.0579834	0.0543213
0.00915527	0.06073
0.0671387	0.0674438
0.085144	0.071106
0.0790405	0.0726318
0.0839233	0.0741577
0.0787354	0.0759888
0.0241089	0.0787354
-0.0125122	0.0814819
-0.0335693	0.0848389
-0.0360107	0.0878906
-0.0393677	0.0915527
-0.0772095	0.0958252
-0.106812	0.100403
-0.0799561	0.105286
-0.0247192	0.110474
0.00549316	0.114441
0.0238037	0.117798
0.0292969	0.12085
0.0671387	0.123596
0.108643	0.125122
0.0701904	0.126038
0.0161743	0.125732
-0.0210571	0.123596
-0.0640869	0.119629
-0.0683594	0.115356
-0.0650024	0.112
-0.0259399	0.109558
0.0494385	0.108032
0.0671387	0.107117
0.0411987	0.106812
0.00854492	0.106812
-0.0012207	0.106812
0.00762939	0.10437
-0.0204468	0.0994873
-0.0540161	0.0918579
-0.0350952	0.0808716
-0.00213623	0.0662231
0.00732422	0.0497437
-0.0228882	0.0323486
-0.0390625	0.0152588
0.00732422	-0.000610352
0.03479	-0.0140381
0.0341797	-0.0253296
0.0167847	-0.0341797
0.0177002	-0.0393677
0.0744629	-0.0418091
0.0704956	-0.0424194
0.0228882	-0.0427246
-0.0201416	-0.0442505
-0.0515747	-0.0469971
-0.0585938	-0.0500488
-0.0997925	-0.0531006
-0.0949097	-0.0564575
-0.045166	-0.0604248
-0.00427246	-0.0646973
0.0323486	-0.0686646
0.0640869	-0.0720215
0.0811768	-0.0750732
0.0787354	-0.0784302
0.0112915	-0.0817871
-0.0814819	-0.0857544
-0.171509	-0.0894165
-0.121155	-0.0924683
0.260925	-0.09552
0.52124	-0.0976563
0.335693	-0.0985718
0.0274658	-0.0979614
-0.30365	-0.0961304
-0.58136	-0.0930786
-0.622864	-0.0888062
-0.411682	-0.083313
-0.0878906	-0.0778198
0.164185	-0.0732422
0.301208	-0.0701904
0.36377	-0.0689697
0.37323	-0.0692749
0.337219	-0.0714111
0.224915	-0.0738525
0.100708	-0.0769043
-0.0149536	-0.0805664
-0.133972	-0.083313
-0.189819	-0.0848389
-0.237122	-0.0860596
-0.25238	-0.0848389
-0.211487	-0.0814819
-0.124512	-0.078125
0.00762939	-0.0756836
0.113525	-0.0738525
0.183716	-0.0723267
0.232544	-0.071106
0.216675	-0.0695801
0.140076	-0.0686646
0.0219727	-0.0674438
-0.109863	-0.0665283
-0.187378	-0.0650024
-0.195313	-0.0634766
-0.147705	-0.0619507
-0.0704956	-0.0601196
-0.00366211	-0.0579834
0.072937	-0.0561523
0.113831	-0.0549316
0.0817871	-0.0540161
0.0177002	-0.0534058
-0.0387573	-0.0524902
-0.0759888	-0.0506592
-0.0845337	-0.0494385
-0.050354	-0.0485229
0.00183105	-0.0469971
0.0537109	-0.045166
0.0906372	-0.0439453
0.0970459	-0.0448608
0.083313	-0.0473022
0.0521851	-0.0494385
0.00640869	-0.0509644
-0.0372314	-0.0512695
-0.0598145	-0.050354
-0.0671387	-0.0491333
-0.0680542	-0.0485229
-0.0671387	-0.0482178
-0.0549316	-0.0469971
-0.0268555	-0.0442505
0.00579834	-0.0415039
0.0231934	-0.0415039
0.0326538	-0.0442505
0.0665283	-0.0491333
0.0848389	-0.0546265
0.0546265	-0.0595093
0.0198364	-0.0628662
-0.0109863	-0.0656128
-0.0491333	-0.067749
-0.0726318	-0.0686646
-0.043335	-0.067749
0.00762939	-0.0650024
0.0247192	-0.0610352
0.032959	-0.055542
0.0592041	-0.0494385
0.0616455	-0.0442505
0.0332642	-0.0411987
0.0234985	-0.0396729
0.0164795	-0.0390625
-0.0280762	-0.0396729
-0.0683594	-0.0427246
-0.0686646	-0.0476074
-0.062561	-0.0518799
-0.0656128	-0.055542
-0.0387573	-0.057373
0.00915527	-0.0582886
0.0256348	-0.0576782
0.0244141	-0.0561523
0.0473022	-0.0543213
0.0561523	-0.0512695
0.0256348	-0.0476074
0.00396729	-0.043335
0.0143433	-0.0390625
0.00579834	-0.0354004
-0.032959	-0.032959
-0.0415039	-0.0314331
-0.0238037	-0.0292969
-0.0219727	-0.027771
-0.0415039	-0.0253296
-0.0210571	-0.0234985
0.017395	-0.0253296
0.00701904	-0.0320435
-0.00610352	-0.0408936
0.00244141	-0.0497437
-0.00488281	-0.0579834
-0.00457764	-0.0653076
0.027771	-0.0720215
0.0534058	-0.0778198
0.0460815	-0.0823975
0.00854492	-0.0839233
0.00518799	-0.0820923
0.0119019	-0.0769043
-0.0149536	-0.0692749
-0.00671387	-0.0610352
0.00854492	-0.0537109
-0.00701904	-0.0485229
-0.0152588	-0.045166
-0.00549316	-0.0427246
0.0109863	-0.0421143
0.00274658	-0.0427246
-0.00854492	-0.0439453
0.0137329	-0.045166
0.00366211	-0.0460815
-0.0357056	-0.0457764
-0.0332642	-0.0439453
-0.0305176	-0.0418091
-0.0231934	-0.0396729
0.00854492	-0.0387573
0.0326538	-0.0390625
0.0350952	-0.0408936
0.0363159	-0.0436401
0.0326538	-0.0457764
0.00549316	-0.0473022
-0.0201416	-0.0466919
-0.0292969	-0.0445557
-0.0262451	-0.0402832
-0.0228882	-0.0332642
-0.020752	-0.0228882
-0.0109863	-0.0100708
-0.00518799	0.00274658
0.000610352	0.0146484
0.0143433	0.0259399
0.00579834	0.0369263
-0.00152588	0.0448608
0.0158691	0.0485229
0.00213623	0.0479126
-0.0131226	0.0439453
-0.00549316	0.0393677
-0.0195313	0.0350952
-0.0268555	0.0326538
0.00946045	0.0323486
0.0491333	0.0344849
0.0656128	0.0384521
0.0646973	0.0448608
0.0436401	0.0524902
0.00915527	0.0613403
-0.0357056	0.0698853
-0.0811768	0.0769043
-0.0961304	0.0817871
-0.0769043	0.0839233
-0.0485229	0.0830078
0.0012207	0.0793457
0.0631714	0.0735474
0.0823975	0.0668335
0.0772095	0.0582886
0.0695801	0.0473022
0.0326538	0.0357056
-0.0183105	0.0250244
-0.0463867	0.0152588
-0.0646973	0.00640869
-0.0732422	-0.00183105
-0.0506592	-0.00946045
-0.0280762	-0.0161743
-0.00793457	-0.0219727
0.0296021	-0.0268555
0.0558472	-0.0308228
0.065918	-0.0341797
0.0744629	-0.038147
0.0460815	-0.0424194
0.00457764	-0.0463867
-0.0210571	-0.0509644
-0.055542	-0.0564575
-0.0772095	-0.062561
-0.0723267	-0.0704956
-0.0708008	-0.078125
-0.0524902	-0.0839233
-0.015564	-0.0869751
0.0177002	-0.0881958
0.0570679	-0.0872803
0.0827026	-0.0860596
0.0823975	-0.0848389
0.0668335	-0.0827026
0.0335693	-0.0808716
-0.00640869	-0.0799561
-0.0366211	-0.0805664
-0.0585938	-0.0830078
-0.0662231	-0.0866699
-0.0631714	-0.0912476
-0.0421143	-0.0964355
-0.0119019	-0.101318
0.0158691	-0.104675
0.0390625	-0.106506
0.0491333	-0.107727
0.0488281	-0.109253
0.050354	-0.112305
0.0442505	-0.118103
0.0418091	-0.126648
0.0164795	-0.136414
-0.0140381	-0.144043
-0.0357056	-0.144653
-0.0485229	-0.133972
-0.0485229	-0.108948
-0.0314331	-0.067749
-0.00671387	-0.00762939
0.0219727	0.0723267
0.0454712	0.171204
0.0534058	0.288696
0.043335	0.423279
0.0131226	0.569763
-0.0241089	0.716858
-0.0494385	0.85083
-0.0640869	0.963135
-0.0674438	1.04797
-0.0634766	1.09894
-0.0488281	1.10992
-0.0219727	1.07605
0.0158691	0.996399
0.0613403	0.875854
0.0827026	0.722351
0.071106	0.545349
0.0366211	0.356445
-0.0247192	0.170593
-0.093689	-0.000305176
-0.139771	-0.14679
-0.219727	-0.261536
-0.323792	-0.340576
-0.260315	-0.384216
0.0161743	-0.396423
0.444641	-0.381165
0.820618	-0.345764
0.860291	-0.298462
0.52887	-0.247498
0.0454712	-0.19928
-0.359192	-0.158386
-0.626526	-0.127563
-0.742493	-0.107422
-0.68634	-0.0964355
-0.531006	-0.0930786
-0.315552	-0.0942993
-0.0717163	-0.098877
0.19989	-0.105896
0.49408	-0.114136
0.713806	-0.12085
0.808105	-0.124207
0.752258	-0.123596
0.484924	-0.119934
0.0497437	-0.114746
-0.415649	-0.108948
-0.766907	-0.103149
-0.909119	-0.0976563
-0.823669	-0.0927734
-0.567322	-0.088501
-0.220642	-0.0845337
0.141602	-0.0814819
0.450134	-0.0799561
0.648499	-0.0799561
0.709229	-0.0808716
0.606384	-0.0827026
0.373535	-0.0842285
0.0817871	-0.0842285
-0.197449	-0.0830078
-0.397644	-0.0817871
-0.464478	-0.0802612
-0.391846	-0.0784302
-0.231018	-0.0759888
-0.0613403	-0.0720215
0.0756836	-0.0656128
0.160828	-0.0579834
0.174255	-0.0512695
0.142822	-0.0473022
0.0891113	-0.045166
0.0299072	-0.0445557
-0.0170898	-0.045166
-0.0524902	-0.0485229
-0.0735474	-0.0531006
-0.0683594	-0.0564575
-0.0338745	-0.0579834
0	-0.0585938
0.010376	-0.0582886
-0.0100708	-0.0561523
-0.0354004	-0.0518799
-0.0512695	-0.0469971
-0.0463867	-0.0415039
0.00610352	-0.0350952
0.0799561	-0.0283813
0.122986	-0.0219727
0.115662	-0.0164795
0.0787354	-0.0131226
0.0241089	-0.0119019
-0.022583	-0.0128174
-0.0390625	-0.0146484
-0.0424194	-0.0161743
-0.0622559	-0.0161743
-0.0741577	-0.0149536
-0.0579834	-0.0137329
-0.0271606	-0.0128174
0.0387573	-0.0115967
0.0976563	-0.00946045
0.0912476	-0.00457764
0.0482178	0.00305176
-0.0338745	0.0128174
-0.0946045	0.0228882
-0.115662	0.0314331
-0.0900269	0.0387573
-0.0411987	0.0445557
0.0131226	0.0497437
0.0509644	0.0540161
0.0695801	0.0570679
0.0756836	0.0592041
0.0512695	0.0610352
0.0308228	0.0634766
0.00244141	0.0668335
-0.0289917	0.0720215
-0.0454712	0.0796509
-0.0613403	0.0875854
-0.0421143	0.0946045
-0.022583	0.101624
-0.00488281	0.108032
0.00793457	0.114136
0.00305176	0.119629
0.0146484	0.123596
0.0125122	0.125122
0.0140381	0.126038
0.0131226	0.126648
0.0216675	0.126343
0.0283813	0.126343
0.00946045	0.126953
-0.00610352	0.128174
-0.0326538	0.1297
-0.0430298	0.131226
-0.0436401	0.131836
-0.0222778	0.131836
0.00976563	0.131836
0.0241089	0.131531
0.0512695	0.13092
0.0744629	0.130005
0.0991821	0.129089
0.0860596	0.127563
0.0430298	0.125427
-0.0012207	0.122986
-0.0512695	0.120239
-0.0732422	0.116882
-0.0897217	0.112
-0.0820923	0.105591
-0.0585938	0.0991821
-0.0427246	0.0915527
-0.0149536	0.0830078
0.0112915	0.0738525
0.0506592	0.0637817
0.0698853	0.0537109
0.0610352	0.0424194
0.0405884	0.0299072
0.00823975	0.0167847
-0.0140381	0.00396729
-0.0427246	-0.00823975
-0.0543213	-0.0204468
-0.0570679	-0.0317383
-0.055542	-0.0418091
-0.0344849	-0.0497437
-0.0125122	-0.0552368
0.0183105	-0.0598145
0.0375366	-0.0631714
0.0439453	-0.0646973
0.0424194	-0.0656128
0.0311279	-0.0665283
0.0259399	-0.067749
0.00915527	-0.0692749
-0.0088501	-0.0717163
-0.0213623	-0.0750732
-0.0167847	-0.0796509
0.0012207	-0.0839233
0.0088501	-0.0872803
0.0158691	-0.0888062
-0.00579834	-0.0891113
-0.0323486	-0.088501
-0.020752	-0.0881958
-0.0384521	-0.0881958
-0.110168	-0.0878906
-0.0616455	-0.0878906
0.269165	-0.0881958
0.527649	-0.0891113
0.379333	-0.090332
0.083313	-0.0918579
-0.275269	-0.093689
-0.608826	-0.09552
-0.655518	-0.0958252
-0.431519	-0.0939941
-0.125122	-0.0906372
0.14801	-0.0875854
0.340271	-0.0860596
0.414734	-0.0854492
0.393982	-0.0857544
0.2948	-0.0863647
0.141602	-0.0860596
-0.0152588	-0.085144
-0.139465	-0.0839233
-0.203247	-0.0817871
-0.221252	-0.0811768
-0.194092	-0.0827026
-0.142212	-0.0842285
-0.0799561	-0.0848389
-0.0308228	-0.0842285
0.00579834	-0.0836182
0.038147	-0.0839233
0.0634766	-0.085144
0.0732422	-0.0863647
0.0765991	-0.0860596
0.0775146	-0.0836182
0.0765991	-0.0784302
0.0619507	-0.0708008
0.0445557	-0.0631714
0.0271606	-0.057373
0.00244141	-0.0537109
-0.0393677	-0.0515747
-0.0720215	-0.050354
-0.0750732	-0.0518799
-0.0640869	-0.0558472
-0.0360107	-0.0616455
-0.000915527	-0.0683594
0.0341797	-0.0753784
0.0671387	-0.0814819
0.0778198	-0.0860596
0.0671387	-0.0891113
0.0442505	-0.0900269
0.0134277	-0.0897217
-0.0271606	-0.0878906
-0.0558472	-0.0845337
-0.078125	-0.0796509
-0.0915527	-0.0738525
-0.0888062	-0.0668335
-0.06073	-0.0598145
-0.0134277	-0.0552368
0.0491333	-0.0537109
0.101013	-0.0537109
0.108948	-0.0543213
0.0772095	-0.0558472
0.0289917	-0.0595093
-0.0161743	-0.0646973
-0.06073	-0.0695801
-0.0787354	-0.0735474
-0.0695801	-0.0765991
-0.0424194	-0.0790405
-0.017395	-0.0790405
0.00366211	-0.0775146
0.0292969	-0.0750732
0.0439453	-0.0723267
0.045166	-0.0692749
0.0405884	-0.0668335
0.0274658	-0.0643921
0.0106812	-0.0622559
-0.00183105	-0.0595093
-0.0109863	-0.0570679
-0.0170898	-0.0558472
-0.0265503	-0.0549316
-0.0357056	-0.055542
-0.0344849	-0.0576782
-0.0253296	-0.0604248
-0.0146484	-0.0628662
0.00183105	-0.0634766
0.0164795	-0.0631714
0.0396729	-0.0640869
0.0534058	-0.0668335
0.0482178	-0.0695801
0.0231934	-0.0704956
-0.00579834	-0.0698853
-0.0289917	-0.0683594
-0.0582886	-0.0674438
-0.0830078	-0.0680542
-0.0802612	-0.0692749
-0.0430298	-0.0714111
0.0158691	-0.072937
0.0637817	-0.0735474
0.085144	-0.072937
0.0805664	-0.0714111
0.0570679	-0.0686646
0.0137329	-0.0643921
-0.0317383	-0.0601196
-0.0680542	-0.0579834
-0.0814819	-0.0579834
-0.0640869	-0.0585938
-0.0201416	-0.0588989
0.0271606	-0.0598145
0.0570679	-0.06073
0.0619507	-0.0619507
0.0497437	-0.0631714
0.0280762	-0.0646973
0.00244141	-0.0656128
-0.0164795	-0.0646973
-0.0305176	-0.062561
-0.0411987	-0.0595093
-0.0421143	-0.0570679
-0.0299072	-0.0546265
-0.017395	-0.0512695
-0.00732422	-0.0466919
0.00640869	-0.0436401
0.0164795	-0.043335
0.0183105	-0.0448608
0.0143433	-0.0457764
0.017395	-0.045166
0.0189209	-0.0430298
0.010376	-0.0402832
-0.00305176	-0.0366211
-0.0131226	-0.0320435
-0.0106812	-0.0256348
-0.00793457	-0.017395
-0.0106812	-0.00762939
-0.00610352	0.00305176
0.00335693	0.0143433
0.00854492	0.0250244
0.0161743	0.0341797
0.0198364	0.0411987
0.0119019	0.0476074
-0.00244141	0.0546265
-0.0201416	0.0622559
-0.0320435	0.0704956
-0.0283813	0.0793457
-0.00610352	0.0863647
0.0140381	0.0915527
0.0228882	0.0946045
0.0201416	0.0964355
0.0137329	0.0964355
0.00610352	0.0939941
-0.00396729	0.0891113
-0.00793457	0.0820923
-0.00488281	0.0726318
-0.0012207	0.0622559
0.0012207	0.0509644
-0.000610352	0.0393677
-0.00183105	0.0299072
-0.00305176	0.0231934
-0.00457764	0.0180054
-0.0128174	0.0128174
-0.0140381	0.00579834
-0.00640869	-0.00488281
0.00793457	-0.017395
0.0189209	-0.0286865
0.0161743	-0.0384521
0.00610352	-0.0473022
-0.000305176	-0.0564575
-0.00335693	-0.065918
-0.00366211	-0.0750732
-0.00488281	-0.083313
-0.00671387	-0.090332
-0.0088501	-0.09552
-0.00915527	-0.0982666
-0.00610352	-0.0997925
-0.00457764	-0.100098
-0.00640869	-0.100708
0.000915527	-0.102234
0.00976563	-0.10437
0.012207	-0.106506
0.0088501	-0.107727
0.00732422	-0.108337
0.00915527	-0.108337
0.0109863	-0.108032
0.00335693	-0.106201
0	-0.10376
0.00213623	-0.101929
-0.00640869	-0.100708
-0.0158691	-0.098877
-0.0146484	-0.0958252
-0.0131226	-0.0939941
-0.0198364	-0.0958252
-0.0265503	-0.100708
-0.0332642	-0.108337
-0.0387573	-0.119019
-0.0268555	-0.133057
0.00213623	-0.150452
0.032959	-0.168762
0.0524902	-0.185242
0.0579834	-0.197144
0.0537109	-0.200195
0.0454712	-0.19043
0.0354004	-0.164185
0.0210571	-0.119934
-0.00671387	-0.0552368
-0.0405884	0.0305176
-0.0640869	0.134583
-0.0653076	0.254517
-0.0393677	0.388794
0	0.535889
0.0344849	0.68634
0.0634766	0.82489
0.067749	0.940857
0.0515747	1.02783
0.0238037	1.08002
-0.0119019	1.09375
-0.0375366	1.06476
-0.0524902	0.992126
-0.0646973	0.879211
-0.0646973	0.732727
-0.0378418	0.561218
-0.0146484	0.377197
-0.015564	0.195618
-0.0241089	0.0305176
-0.015564	-0.108643
-0.0131226	-0.21637
-0.126038	-0.292053
-0.239563	-0.33783
-0.160522	-0.35675
0.0946045	-0.352173
0.466003	-0.327759
0.758667	-0.289612
0.708008	-0.248108
0.337524	-0.210266
-0.102234	-0.179443
-0.440369	-0.15686
-0.666809	-0.140991
-0.746765	-0.130005
-0.628967	-0.122375
-0.375061	-0.118103
-0.108643	-0.116882
0.0830078	-0.118713
0.181274	-0.12207
0.261536	-0.125427
0.334778	-0.127258
0.437927	-0.127563
0.599976	-0.126648
0.655212	-0.124512
0.505676	-0.12085
0.148315	-0.117188
-0.323486	-0.113525
-0.725403	-0.109558
-0.928955	-0.105286
-0.864563	-0.101929
-0.571594	-0.100403
-0.143433	-0.100098
0.26886	-0.100403
0.53833	-0.101013
0.647278	-0.101318
0.615845	-0.100098
0.480957	-0.0979614
0.267334	-0.0942993
0.020752	-0.090332
-0.201416	-0.0854492
-0.352478	-0.0802612
-0.39032	-0.0762939
-0.33844	-0.0738525
-0.222473	-0.0714111
-0.0756836	-0.0692749
0.0439453	-0.067749
0.121765	-0.0671387
0.163269	-0.0671387
0.184631	-0.0665283
0.175171	-0.0656128
0.115662	-0.0662231
0.0436401	-0.0674438
-0.0241089	-0.0683594
-0.0912476	-0.0671387
-0.133362	-0.0653076
-0.150757	-0.0634766
-0.142517	-0.0622559
-0.115356	-0.0601196
-0.0656128	-0.0585938
0.0143433	-0.0567627
0.093689	-0.0543213
0.141907	-0.0506592
0.140076	-0.0466919
0.110779	-0.0427246
0.0717163	-0.0393677
0.00640869	-0.0363159
-0.078125	-0.0335693
-0.137024	-0.0302124
-0.144958	-0.0259399
-0.0927734	-0.020752
-0.0152588	-0.0146484
0.0491333	-0.00976563
0.0741577	-0.00732422
0.0650024	-0.00518799
0.0683594	-0.00244141
0.0741577	0.0012207
0.0512695	0.00457764
-0.000915527	0.00640869
-0.032959	0.00701904
-0.0274658	0.00793457
-0.0204468	0.00976563
-0.038147	0.0115967
-0.0604248	0.0149536
-0.050354	0.0195313
-0.012207	0.0253296
0.0396729	0.0308228
0.0683594	0.0354004
0.0604248	0.0405884
0.0271606	0.0473022
-0.00610352	0.0558472
-0.0198364	0.065918
-0.0302124	0.0759888
-0.0363159	0.0848389
-0.0354004	0.0906372
-0.0244141	0.0949097
-0.000915527	0.0985718
0.0158691	0.101624
0.0216675	0.10437
0.00335693	0.105286
-0.0183105	0.10498
-0.0250244	0.104065
-0.0256348	0.102844
-0.0259399	0.102844
-0.0283813	0.10498
-0.000915527	0.108337
0.03479	0.112
0.0546265	0.115662
0.0534058	0.119934
0.0317383	0.125122
0.0131226	0.130615
-0.00518799	0.135803
-0.0222778	0.13855
-0.0250244	0.138855
-0.0292969	0.136108
-0.0228882	0.13092
-0.000305176	0.124512
0.0283813	0.117798
0.0494385	0.109863
0.0335693	0.100708
0.00671387	0.090332
-0.0125122	0.0808716
-0.022583	0.0732422
-0.0265503	0.0665283
-0.0421143	0.0604248
-0.0448608	0.0540161
-0.0283813	0.0473022
-0.0109863	0.0405884
0.0158691	0.0326538
0.0326538	0.0234985
0.0299072	0.0128174
0.0204468	0.00305176
0.0152588	-0.00579834
0.020752	-0.0131226
0.0250244	-0.0195313
0.0167847	-0.0262451
0.000915527	-0.0338745
-0.00946045	-0.0405884
-0.00976563	-0.0463867
-0.0158691	-0.0521851
-0.0265503	-0.0579834
-0.0241089	-0.0646973
-0.0167847	-0.0714111
-0.0216675	-0.0778198
-0.0338745	-0.0836182
-0.0411987	-0.0875854
-0.0323486	-0.0894165
-0.0119019	-0.0900269
0.0137329	-0.090332
0.0234985	-0.090332
0.010376	-0.0909424
0.0180054	-0.0906372
0.0140381	-0.0897217
-0.0582886	-0.0888062
-0.0460815	-0.088501
0.262146	-0.0897217
0.516663	-0.0918579
0.362854	-0.0939941
0.067749	-0.0952148
-0.321045	-0.0964355
-0.662842	-0.0973511
-0.703735	-0.0982666
-0.466614	-0.0982666
-0.0878906	-0.0970459
0.245361	-0.0942993
0.446777	-0.0900269
0.522461	-0.0854492
0.460205	-0.0820923
0.287476	-0.0796509
0.0738525	-0.0778198
-0.101624	-0.0762939
-0.213928	-0.0747681
-0.247498	-0.0738525
-0.21637	-0.0738525
-0.158691	-0.0747681
-0.0958252	-0.0747681
-0.0485229	-0.0735474
-0.0189209	-0.0723267
-0.00793457	-0.0720215
-0.00518799	-0.0717163
0.00823975	-0.0717163
0.0311279	-0.0717163
0.071106	-0.0723267
0.110168	-0.0726318
0.114746	-0.0735474
0.0891113	-0.0756836
0.0482178	-0.078125
-0.00640869	-0.0799561
-0.0466919	-0.0796509
-0.0701904	-0.0775146
-0.078125	-0.0741577
-0.0576782	-0.0698853
-0.0143433	-0.065918
0.0317383	-0.062561
0.0546265	-0.0595093
0.0473022	-0.0567627
0.0283813	-0.0561523
0.00274658	-0.0567627
-0.0283813	-0.0582886
-0.0500488	-0.0601196
-0.0430298	-0.0622559
-0.0192261	-0.0650024
-0.0128174	-0.0680542
-0.0180054	-0.0704956
-0.0177002	-0.0720215
-0.00610352	-0.0723267
0.0213623	-0.071106
0.0494385	-0.0683594
0.0634766	-0.0640869
0.0616455	-0.0598145
0.0524902	-0.0552368
0.0335693	-0.0509644
0.00152588	-0.0463867
-0.0411987	-0.0424194
-0.0653076	-0.0402832
-0.0646973	-0.0405884
-0.0628662	-0.0418091
-0.0552368	-0.0430298
-0.0271606	-0.0445557
0.00457764	-0.0476074
0.0323486	-0.0521851
0.0360107	-0.0576782
0.0262451	-0.0622559
0.0366211	-0.0662231
0.0482178	-0.0708008
0.027771	-0.0750732
-0.027771	-0.078125
-0.0695801	-0.0790405
-0.0674438	-0.0784302
-0.0323486	-0.0765991
0.00610352	-0.0732422
0.0326538	-0.0680542
0.0656128	-0.0631714
0.0857544	-0.0598145
0.0588989	-0.0567627
-0.00427246	-0.0537109
-0.0390625	-0.0518799
-0.0402832	-0.0537109
-0.0384521	-0.0585938
-0.0427246	-0.0643921
-0.0457764	-0.0698853
-0.0222778	-0.0738525
0.0222778	-0.0762939
0.0497437	-0.0772095
0.0543213	-0.0772095
0.0460815	-0.0772095
0.0408936	-0.0765991
0.022583	-0.0747681
-0.0244141	-0.0717163
-0.0689697	-0.0674438
-0.0772095	-0.0628662
-0.0570679	-0.0595093
-0.027771	-0.0576782
0.0088501	-0.0570679
0.0201416	-0.0564575
0.0280762	-0.0546265
0.0521851	-0.0515747
0.0695801	-0.0491333
0.062561	-0.0479126
0.0183105	-0.0485229
-0.0204468	-0.0500488
-0.0375366	-0.0509644
-0.0369263	-0.0509644
-0.0506592	-0.0500488
-0.0604248	-0.0485229
